time,ecg
0.0,0.039032429459993585
0.002,-0.01661841202562384
0.004,-0.00392321767856299
0.006,0.059194456101377114
0.008,0.018734588168625804
0.01,0.01830076791414028
0.012,0.02465829588525337
0.014,0.026648118136397694
0.016,-0.03012650594845984
0.018000000000000002,0.0759175668004703
0.02,0.009925661881698878
0.022,-0.018408417242004087
0.024,-0.01719354878908981
0.026000000000000002,-0.012448318944272882
0.028,0.044531989331993954
0.03,0.015969699685367333
0.032,0.030679300150707984
0.034,0.033046138205456994
0.036000000000000004,-0.006898952977341562
0.038,0.006644412449774716
0.04,0.004303045216336943
0.042,-0.0011210184563850353
0.044,0.0446957779134671
0.046,0.013247716886430786
0.048,0.06237547902799727
0.05,0.07350936368775471
0.052000000000000005,0.07932527539034513
0.054,0.08873830805292704
0.056,0.047471882531845366
0.058,0.08620155326767015
0.06,0.05927207490259986
0.062,0.07947164345683941
0.064,0.05536160065959899
0.066,0.08393256671551243
0.068,0.0843178644712981
0.07,0.058585872842454326
0.07200000000000001,0.07527122612820177
0.074,0.06440162893475279
0.076,0.08099524838479814
0.078,0.10948846685502507
0.08,0.1176629305434618
0.082,0.07319729020489711
0.084,0.09542564185675378
0.08600000000000001,0.03374812379204363
0.088,0.11091753569321083
0.09,0.08078287184952158
0.092,0.1602629596702425
0.094,0.11716223213144643
0.096,0.08587943493788527
0.098,0.13259780075478925
0.1,0.07980012635667175
0.10200000000000001,0.09979300883631385
0.10400000000000001,0.1362031746229618
0.106,0.10880843546831544
0.108,0.08871727135887038
0.11,0.1037324858392288
0.112,0.13257495131861483
0.114,0.11659451296273934
0.116,0.10149569466759475
0.11800000000000001,0.07729570571010785
0.12,0.11537186503954852
0.122,0.09291322615929654
0.124,0.1226254551332901
0.126,0.08741632975217926
0.128,0.1076945623131483
0.13,0.09023152342920547
0.132,0.11213662825150658
0.134,0.08791046077581549
0.136,0.10288461989097096
0.138,0.09107938673600402
0.14,0.08189970324733778
0.14200000000000002,0.05654987050354654
0.14400000000000002,0.07653502754480118
0.146,0.0857142097592726
0.148,0.03484605922781901
0.15,0.018038268151150994
0.152,0.04446482174226812
0.154,0.04965892521911454
0.156,0.0432983812890443
0.158,0.02383382423294443
0.16,-0.0170741723059261
0.162,-0.023418072145229216
0.164,-0.017442737004830577
0.166,-0.03579325377358101
0.168,0.014001209025249317
0.17,-0.003316500180768532
0.17200000000000001,-0.004264848614305317
0.17400000000000002,-0.035311951550634726
0.176,-0.01931220428897451
0.178,-0.0760135634852506
0.18,-0.02811304349097163
0.182,-0.04432120982691494
0.184,-0.028614555267227185
0.186,-0.0633417679860851
0.188,-0.0699823432289383
0.19,-0.016937588619156813
0.192,-0.04886836787053034
0.194,0.007859445814964866
0.196,0.010185945041292645
0.198,0.022627188685569684
0.2,0.039251581453396654
0.202,0.050636546712282626
0.20400000000000001,0.08502056055598917
0.20600000000000002,0.14294019274843967
0.20800000000000002,0.19502919082482068
0.21,0.20916555574406853
0.212,0.27009388107986976
0.214,0.31234309908579105
0.216,0.38881744822023356
0.218,0.4203460609689621
0.22,0.48563266737969657
0.222,0.5618344604203592
0.224,0.5568585838810153
0.226,0.6381669105576956
0.228,0.7048300799661625
0.23,0.769218995953602
0.232,0.8034734630988376
0.234,0.8631816837471532
0.23600000000000002,0.8728799174812801
0.23800000000000002,0.8914720063839964
0.24,0.9434653760708196
0.242,0.9397149981710773
0.244,0.9948396016216863
0.246,0.9904653244854542
0.248,1.0233960455885733
0.25,0.9737097148118566
0.252,1.027536963826873
0.254,1.0279797998579314
0.256,0.9868007638721037
0.258,0.9774934834307817
0.26,0.9241416887113136
0.262,0.9032748225331512
0.264,0.8819899328414137
0.266,0.8675794600450415
0.268,0.8342005588564634
0.27,0.7715204710462427
0.272,0.7503292477621711
0.274,0.658258087437991
0.276,0.6590887998363323
0.278,0.5715163732495941
0.28,0.5615335357746262
0.28200000000000003,0.4794216461491382
0.28400000000000003,0.48357241636545845
0.28600000000000003,0.3823538407319449
0.28800000000000003,0.35068531279829684
0.29,0.3557230932116028
0.292,0.29731844206110764
0.294,0.25363338894061616
0.296,0.21048105909880394
0.298,0.15745289480743888
0.3,0.1421480519972441
0.302,0.11371685195742157
0.304,0.09409424952450757
0.306,0.09434455638389812
0.308,0.08628691098102056
0.31,0.020428096069814952
0.312,0.04745021430389721
0.314,0.02231717226329805
0.316,0.04330918813546606
0.318,0.03648710917595563
0.32,0.03703914904184896
0.322,-0.002920553080087339
0.324,0.026913578648254964
0.326,-0.008239071620044006
0.328,0.02728855414423858
0.33,0.014287423880267453
0.332,0.01308409710174474
0.334,2.9740468709365045e-05
0.336,0.02951420314975151
0.338,0.04733091761735747
0.34,0.025189375245362005
0.342,0.032660579578549044
0.34400000000000003,0.04196755675488854
0.34600000000000003,0.044539453082254016
0.34800000000000003,0.03980674645421001
0.35000000000000003,0.02735683820102375
0.352,0.053493779135541535
0.354,0.05096076747014229
0.356,0.022358958896116044
0.358,0.03727278845934832
0.36,0.05291703443273309
0.362,0.0445792416580451
0.364,0.03628474391719443
0.366,0.013979760699700609
0.368,0.07763762692518035
0.37,0.05039426241498667
0.372,0.04182905437224832
0.374,0.10042647780699097
0.376,0.053340582352609404
0.378,0.027527376456205472
0.38,0.053196487649813336
0.382,0.10305279217709479
0.384,0.08651645327835605
0.386,0.005529791663162508
0.388,0.03949164696352943
0.39,0.07190814061002439
0.392,0.0653837912675543
0.394,0.05864480985597247
0.396,0.05336803532200938
0.398,0.053390695471912726
0.4,0.07400591674947382
0.402,0.04678639054483603
0.404,0.08052090677121478
0.406,0.03555447645494346
0.40800000000000003,0.08164577355077587
0.41000000000000003,0.02380552327291737
0.41200000000000003,0.0640949966510143
0.41400000000000003,0.07766532653510526
0.41600000000000004,0.08605962873945394
0.418,0.06968479294712997
0.42,0.0462716133480265
0.422,0.04658230920365257
0.424,0.0032643704976514287
0.426,0.06942924878474323
0.428,0.05992315800159405
0.43,0.035203241496035924
0.432,0.04493626065070165
0.434,0.04507653157843596
0.436,0.05889120972312506
0.438,0.07101995529846239
0.44,0.06198312896132743
0.442,0.04669700022651112
0.444,0.025104777678518018
0.446,0.02820882099946515
0.448,0.0670735403058063
0.45,0.0446027918941581
0.452,0.009553133727559514
0.454,0.03824865278840201
0.456,0.04491857246509605
0.458,0.038949949184819914
0.46,0.038735213231720064
0.462,0.004664608251727067
0.464,0.04566868435920539
0.466,0.027113099877147502
0.468,0.03889888096725625
0.47000000000000003,0.041136655727228494
0.47200000000000003,0.06246847157475815
0.47400000000000003,0.03780486805050878
0.47600000000000003,0.029744428295973506
0.47800000000000004,0.029370653639897368
0.48,0.02135916487282349
0.482,-0.0033118717633291786
0.484,0.0033463867166130153
0.486,0.041198550622420345
0.488,0.02907947545084614
0.49,0.017282727367529855
0.492,0.025350490073170237
0.494,0.013955125552054113
0.496,0.01595403407581639
0.498,0.009580464044254888
0.5,-0.006428893051703764
0.502,0.022957799875289515
0.504,0.019534362621393075
0.506,0.012785797182581243
0.508,0.03204203152910975
0.51,-0.003780736737229541
0.512,0.004262599164298629
0.514,0.01907460520443032
0.516,-0.011965671692774252
0.518,-0.002504442535350475
0.52,0.03204740808160363
0.522,-0.002762443086146628
0.524,-0.006485153612378607
0.526,0.020128289000567748
0.528,-0.054280817364387404
0.53,-0.02759925874575915
0.532,-0.05590686666269538
0.534,-0.03701832160902788
0.536,-0.025073945046051836
0.538,-0.04784970163559862
0.54,-0.04575685255032216
0.542,-0.06423830421793308
0.544,-0.03701955437353949
0.546,-0.029442477608363243
0.548,-0.03785067470654467
0.55,-0.03881909852859157
0.552,-0.054782617364206435
0.554,-0.013222236032476506
0.556,-0.05486420948368578
0.558,-0.0882659092582765
0.56,-0.06661355063869195
0.562,-0.08931434577201933
0.5640000000000001,-0.08673889558461084
0.5660000000000001,-0.07276872069255073
0.5680000000000001,-0.09102183189623143
0.5700000000000001,-0.07684281432604007
0.5720000000000001,-0.05830721170274458
0.5740000000000001,-0.0997220961101816
0.5760000000000001,-0.09740801199944962
0.578,-0.10237736342738513
0.58,-0.10760821338186095
0.582,-0.09327482711065391
0.584,-0.07141510850058091
0.586,-0.13376577893450883
0.588,-0.08870942849314374
0.59,-0.0864366620732741
0.592,-0.08736223632719321
0.594,-0.10344888078894944
0.596,-0.12476428214420725
0.598,-0.08288095725039572
0.6,-0.08080427261396264
0.602,-0.11275580294986375
0.604,-0.08567961527801626
0.606,-0.12023937301652947
0.608,-0.09936802393790042
0.61,-0.0653712409981187
0.612,-0.08441101170073713
0.614,-0.08346431000013843
0.616,-0.12403193781593608
0.618,-0.13392699517694023
0.62,-0.09816180732290547
0.622,-0.050000477083640485
0.624,-0.09544681910753768
0.626,-0.11329559659637754
0.628,-0.09410627166896968
0.63,-0.05814452453655172
0.632,-0.09585183215334184
0.634,-0.08384557332038413
0.636,-0.06500956826712924
0.638,-0.04812568021102634
0.64,-0.07763994046186344
0.642,-0.08573918247292905
0.644,-0.06912655411431815
0.646,-0.07767746166475169
0.648,-0.06855311040609219
0.65,-0.04488869688353549
0.652,-0.03847296507733299
0.654,-0.07528023429805729
0.656,-0.06042255035373932
0.658,-0.08774943358430487
0.66,-0.02087929829230538
0.662,-0.004080587740295655
0.664,-0.038627575917097125
0.666,-0.044705387898394115
0.668,-0.022004881371541697
0.67,-0.028679494029923785
0.672,-0.01282748578949744
0.674,-0.01656271685056282
0.676,-0.021969633220930283
0.678,-0.0137714566324805
0.68,-0.00037017881532942776
0.682,-0.032942628626227766
0.684,-0.004044281769611621
0.686,-0.024224108750878735
0.6880000000000001,-0.014970309380018552
0.6900000000000001,0.009467253103139228
0.6920000000000001,0.0014998885561387995
0.6940000000000001,-0.02345150666083092
0.6960000000000001,0.002123587467783128
0.6980000000000001,0.014214500058599783
0.7000000000000001,0.010477929440551162
0.7020000000000001,0.005485142487978826
0.704,-0.003743994682195377
0.706,0.014228445766643335
0.708,0.03667645256510001
0.71,0.0016958320249633105
0.712,0.013787677873237775
0.714,0.07095233247660036
0.716,0.00263039744799402
0.718,0.0015504547252963852
0.72,0.04120077970156886
0.722,0.026886444503333357
0.724,-0.0081622567134927
0.726,-0.0036093917493969074
0.728,0.02832535660982491
0.73,0.05195864935315615
0.732,-3.610404719073604e-06
0.734,0.021295059142112716
0.736,0.04326601013327579
0.738,0.03981575435808657
0.74,0.014932036746799566
0.742,0.04916942429846487
0.744,-0.006388827442972588
0.746,0.035534190333167466
0.748,0.059230397575263084
0.75,0.04634977612081864
0.752,0.05398885750562381
0.754,0.0843043859986259
0.756,0.027627562925047505
0.758,0.04924414271546423
0.76,0.005453848972635537
0.762,0.0579847968950378
0.764,6.4265115908975975e-06
0.766,0.012836307112987822
0.768,0.02214917294395383
0.77,0.01645144890513422
0.772,0.023667167052518666
0.774,0.05481753505948449
0.776,0.03269716733600374
0.778,0.025788623919005306
0.78,0.03765287250099151
0.782,0.028268257209909744
0.784,0.007518953519287273
0.786,0.03237127213143267
0.788,0.05684344100723937
0.79,0.044457988780158914
0.792,0.00659259580944557
0.794,0.072783122246935
0.796,0.01643939995693008
0.798,0.046860120488421496
0.8,0.08613206068340101
0.802,0.03380743842991992
0.804,0.05365768717319081
0.806,0.03610534691867309
0.808,0.04856336787823895
0.81,0.02322790090737985
0.812,0.009942681732643762
0.8140000000000001,0.02938450739865551
0.8160000000000001,0.022302436751732737
0.8180000000000001,0.03111804379842813
0.8200000000000001,0.025977146594102937
0.8220000000000001,0.04784108599588983
0.8240000000000001,0.034551187621509286
0.8260000000000001,0.012845779792056564
0.8280000000000001,0.015186357225337704
0.8300000000000001,0.019635074677895423
0.8320000000000001,0.02808773441103531
0.834,0.0025015139691735556
0.836,0.004438930498354441
0.838,0.036452014337685204
0.84,0.0018186035524927762
0.842,0.017898362531787775
0.844,-0.005048332624305862
0.846,0.0026782354102972313
0.848,0.016384541749933697
0.85,0.026070917016817827
0.852,0.025686863473982892
0.854,0.029472228632207685
0.856,0.0275750183351825
0.858,0.009498262737138226
0.86,0.04628347601902654
0.862,0.03288081839378109
0.864,0.03025804318145763
0.866,0.04729019104638862
0.868,0.022487757515461494
0.87,0.03113124118322525
0.872,0.024144750826896603
0.874,0.007422751844742489
0.876,0.020872594400262547
0.878,0.027513444067861402
0.88,0.03541781617138492
0.882,0.040495697781878025
0.884,0.03729040919068928
0.886,0.024932698151287003
0.888,0.053018017252611585
0.89,0.06745276630972781
0.892,0.03428877690036802
0.894,0.03313480453073585
0.896,0.03401170854497247
0.898,0.04359151614685451
0.9,0.03873860168864729
0.902,0.06440758848244571
0.904,0.034805315634773175
0.906,0.056254561346194866
0.908,0.04132789014699287
0.91,0.03434902715390398
0.912,0.05593026129738454
0.914,0.07580113670981209
0.916,0.09343194887171967
0.918,0.06494833680545284
0.92,0.08865167019989463
0.922,0.042821874681620596
0.924,0.09429562924046417
0.926,0.06473269247941324
0.928,0.053883390614012455
0.93,0.10884828282536771
0.932,0.09375178544083752
0.934,0.08323044930625806
0.936,0.08535251366574372
0.9380000000000001,0.054514438834277604
0.9400000000000001,0.0661055141334904
0.9420000000000001,0.09191933789235224
0.9440000000000001,0.10780035054135
0.9460000000000001,0.10238502281332111
0.9480000000000001,0.09772481652158224
0.9500000000000001,0.11818335089538598
0.9520000000000001,0.10709414219360767
0.9540000000000001,0.07186821358424503
0.9560000000000001,0.12348433005013831
0.9580000000000001,0.08657252833876099
0.96,0.10010068502526813
0.962,0.08716721475480715
0.964,0.09150214430545195
0.966,0.13309052032106544
0.968,0.1136060097302283
0.97,0.0926141923629137
0.972,0.10277790400388567
0.974,0.09577073488148918
0.976,0.08776713678848404
0.978,0.09301229767761453
0.98,0.06967486932592853
0.982,0.09628415341182452
0.984,0.09165140467944952
0.986,0.07751785073562566
0.988,0.039575739665793315
0.99,0.03415867842985415
0.992,0.025693004925041674
0.994,0.02942643833837003
0.996,0.01999454664726244
0.998,0.03025975113333756
1.0,0.020045957483332683
1.002,0.048820181775232764
1.004,0.018100844464793743
1.006,0.05854236488830179
1.008,0.015590736721111782
1.01,0.05569516094086109
1.012,0.0035975734074521534
1.014,0.011604632483649374
1.016,0.0008798979828986479
1.018,0.0028485454658776334
1.02,-0.002992448603373374
1.022,0.01797646295638184
1.024,-0.013252788247736291
1.026,-0.0897466888035334
1.028,-0.022831989618230672
1.03,-0.07602656151008019
1.032,-0.10642643156759135
1.034,-0.08848052536273734
1.036,-0.07681818581660542
1.038,-0.08270056568031171
1.04,-0.07512216074568137
1.042,-0.07455197045716971
1.044,-0.06646104223899493
1.046,-0.08537760324813162
1.048,-0.10730677041114448
1.05,-0.07142049194196841
1.052,-0.0309811067423954
1.054,-0.006147198635723189
1.056,-0.0020727008998921775
1.058,0.018262433384597026
1.06,0.06956662195559529
1.062,0.06035844748087236
1.064,0.10989756252036745
1.066,0.12386445770358949
1.068,0.176240170117612
1.07,0.2499869688191901
1.072,0.30949295003555527
1.074,0.37214301168160796
1.076,0.41373598147763746
1.078,0.46599361793713356
1.08,0.4835859365705643
1.082,0.5315915270555075
1.084,0.6080624798365925
1.086,0.6736877901583123
1.088,0.7410839112107805
1.09,0.7528918592428618
1.092,0.8018613078108748
1.094,0.8588852968299859
1.096,0.8809751610666395
1.098,0.9323698672935962
1.1,0.9506013592557203
1.102,0.9317962301009234
1.104,0.9732901666503732
1.106,1.0148906232372414
1.108,0.9942244151818854
1.11,0.9695187223106881
1.112,0.9731973193102871
1.114,0.9253259118073407
1.116,0.9042697667560553
1.118,0.8842091967044441
1.12,0.9014005342375383
1.122,0.8260227468127067
1.124,0.7897155857623426
1.1260000000000001,0.7633985262034186
1.1280000000000001,0.7121158794369733
1.1300000000000001,0.6887429768037692
1.1320000000000001,0.6689690447447121
1.1340000000000001,0.581737207234805
1.1360000000000001,0.5236501166500134
1.1380000000000001,0.48038218913979136
1.1400000000000001,0.41788390765179856
1.1420000000000001,0.3748939548176547
1.1440000000000001,0.3357597984724142
1.1460000000000001,0.30193436475137003
1.1480000000000001,0.23336539283912375
1.1500000000000001,0.20025550970846123
1.1520000000000001,0.17055357150768102
1.154,0.12147646931351239
1.156,0.09658916312749632
1.158,0.0884321028409935
1.16,0.08755925133779723
1.162,0.061755027201485624
1.164,0.04040986391326476
1.166,-0.005432849225233221
1.168,-0.022365623783244963
1.17,-0.04132406886079012
1.172,-0.05159568726176607
1.174,-0.016740962406371455
1.176,-0.03797026300656958
1.178,-0.08206337793582566
1.18,-0.05537339999834587
1.182,-0.07903870770916392
1.184,-0.06232135422299828
1.186,-0.06985214978459729
1.188,-0.06392829747658269
1.19,-0.025238855922669022
1.192,-0.04101414566717743
1.194,-0.05998261342318455
1.196,-0.051616486257200014
1.198,-0.07561678061719436
1.2,-0.04484630381101248
1.202,-0.0663347688724263
1.204,-0.026419024331632936
1.206,-0.04943742170237938
1.208,-0.033165540473452514
1.21,-0.024329804962756194
1.212,-0.052601401350552766
1.214,-0.012461553061549214
1.216,-0.035801274180811755
1.218,-0.05476087426349736
1.22,-0.024939559844116492
1.222,-0.03679124525700698
1.224,0.01161061164927724
1.226,-0.001796234847126146
1.228,-0.04597520124268106
1.23,-0.05493459848176534
1.232,-0.03653680683635962
1.234,-0.012509489801827518
1.236,-0.04958313178938617
1.238,-0.047366723299717306
1.24,-0.039081137621218585
1.242,-0.03829933217059219
1.244,-0.06663936555926724
1.246,-0.0292240769044736
1.248,-0.030424498049461072
1.25,-0.020181536823955973
1.252,-0.06468007627257866
1.254,-0.01551854322148042
1.256,0.007071226371344714
1.258,-0.06951984287012557
1.26,-0.05357860218967941
1.262,-0.022957378462580075
1.264,-0.031806432809324645
1.266,0.002267676273855803
1.268,-0.0668806812385131
1.27,-0.020783937780855164
1.272,-0.04502100144539943
1.274,-0.017637524736322
1.276,-0.028946121558431886
1.278,-0.03709611943257296
1.28,-0.05749611047897595
1.282,-0.04775228044308669
1.284,-0.02930663245807994
1.286,-0.04769294233282814
1.288,-0.03191572182690219
1.29,-0.05285554780417876
1.292,-0.042249642203064534
1.294,-0.05642294894777524
1.296,-0.05067333477126991
1.298,-0.039351615696909856
1.3,-0.035626274485797325
1.302,-0.07237287680575769
1.304,-0.015120494672012232
1.306,-0.07949605908722862
1.308,-0.034924066082475745
1.31,-0.019067765773653954
1.312,-0.039108044337097414
1.314,-0.029478660350641887
1.316,-0.015314060393383
1.318,-0.06945803464734648
1.32,-0.04633400298997644
1.322,-0.021595102017503948
1.324,-0.06080537501913208
1.326,-0.04476736403881206
1.328,-0.05730186514258294
1.33,0.006768978487632915
1.332,-0.023503836062229562
1.334,-0.07478842549700843
1.336,-0.03490057372260058
1.338,-0.10478472899344676
1.34,-0.057971195331693634
1.342,-0.08687645810238662
1.344,-0.046267380621912775
1.346,-0.03720918220070111
1.348,-0.06844486835876275
1.35,-0.0639815609191066
1.352,-0.058674401125122094
1.354,-0.04910848356411589
1.356,-0.07800946085128214
1.358,-0.07583787669310368
1.36,-0.07403205252489559
1.362,-0.08792215199146852
1.364,-0.08719609479417753
1.366,-0.0798851237491633
1.368,-0.08413634683720096
1.37,-0.06876993865633746
1.372,-0.07066865854935131
1.374,-0.08554835741013458
1.3760000000000001,-0.07284087870325587
1.3780000000000001,-0.12899658374510042
1.3800000000000001,-0.12242735242638492
1.3820000000000001,-0.08789303010436413
1.3840000000000001,-0.10671669443121268
1.3860000000000001,-0.13741931354641937
1.3880000000000001,-0.1264427213071121
1.3900000000000001,-0.10267118456034226
1.3920000000000001,-0.10892678433123565
1.3940000000000001,-0.13849639407560888
1.3960000000000001,-0.1812675824647796
1.3980000000000001,-0.11388712708584864
1.4000000000000001,-0.15447213366872242
1.4020000000000001,-0.14803499397638506
1.4040000000000001,-0.1559427320062013
1.4060000000000001,-0.1560367891669899
1.408,-0.17583104118957987
1.41,-0.15836386560498877
1.412,-0.15085055517864857
1.414,-0.16720211375864652
1.416,-0.17035898096886945
1.418,-0.1423440225419635
1.42,-0.17622471552311342
1.422,-0.21701696382469604
1.424,-0.12554948119137752
1.426,-0.18281165132713148
1.428,-0.20594982276981566
1.43,-0.18679223769365383
1.432,-0.20577648313550606
1.434,-0.16757595339396278
1.436,-0.1870673711906418
1.438,-0.20739821198131486
1.44,-0.19766076955863113
1.442,-0.19033242420081448
1.444,-0.2061097167242402
1.446,-0.22616145530049708
1.448,-0.2167196269186436
1.45,-0.2110271238451545
1.452,-0.21700108962060968
1.454,-0.17935947360120963
1.456,-0.17718605079179664
1.458,-0.21156590836403963
1.46,-0.2035176073321293
1.462,-0.1495869190025987
1.464,-0.17029649037460215
1.466,-0.22522989067615168
1.468,-0.17654889042735217
1.47,-0.21179772123934684
1.472,-0.20648404651191374
1.474,-0.19843049993908968
1.476,-0.20170023254175634
1.478,-0.18428097736017196
1.48,-0.19040072740822855
1.482,-0.17433947994591995
1.484,-0.20984277309398797
1.486,-0.16883883469294153
1.488,-0.18148237841411363
1.49,-0.1809150067420465
1.492,-0.16073390367555537
1.494,-0.16131030809625502
1.496,-0.18642902821593682
1.498,-0.16341209888841698
1.5,-0.15335459620537217
1.502,-0.19363834732175506
1.504,-0.14314938812438427
1.506,-0.13182710978458406
1.508,-0.12758770143531173
1.51,-0.18347215484791862
1.512,-0.1332986507727869
1.514,-0.18000386186809436
1.516,-0.1575212098459064
1.518,-0.14405006512262142
1.52,-0.13769147417457048
1.522,-0.11543394294670839
1.524,-0.12374615842674945
1.526,-0.12067036962791464
1.528,-0.1327306878097412
1.53,-0.11016803268717965
1.532,-0.08842295241617021
1.534,-0.11993937928326245
1.536,-0.12750006647948903
1.538,-0.09680631732465853
1.54,-0.11371653523615698
1.542,-0.10121386207002328
1.544,-0.0772395241577587
1.546,-0.09349665455941433
1.548,-0.0974177163425827
1.55,-0.1135502831412907
1.552,-0.08742986255718668
1.554,-0.08223529631976709
1.556,-0.040630292478728174
1.558,-0.083915165076308
1.56,-0.08128221006939293
1.562,-0.07962738217496418
1.564,-0.07111909102800873
1.566,-0.04263675361316424
1.568,-0.053227417268045404
1.57,-0.03164603934940983
1.572,-0.08801681024886082
1.574,-0.0695856420540037
1.576,-0.08115814354049572
1.578,-0.054642592296977585
1.58,-0.06371177458642771
1.582,-0.041276639733389006
1.584,-0.08337399736020065
1.586,-0.05076574736030514
1.588,-0.03274878565274355
1.59,-0.024838842574568393
1.592,-0.023916235115000083
1.594,-0.047246503763341136
1.596,-0.04585766778063977
1.598,-0.03880633558559684
1.6,-0.05632109444587395
1.602,-0.0015130054356454863
1.604,-0.11790118531001617
1.606,-0.05554072861207224
1.608,-0.10243973645142247
1.61,-0.06574075222757571
1.612,-0.027472663567004806
1.614,-0.0733448397884619
1.616,-0.025440995306500593
1.618,-0.05438901734020195
1.62,-0.06975254602248536
1.622,-0.03761810290306129
1.624,-0.05535102112008276
1.6260000000000001,-0.0351041213476467
1.6280000000000001,-0.044828470621351355
1.6300000000000001,-0.054988163702862976
1.6320000000000001,-0.06753531054146981
1.6340000000000001,-0.06438146557732216
1.6360000000000001,-0.04813162495051341
1.6380000000000001,-0.0633646630448457
1.6400000000000001,-0.04481070242375844
1.6420000000000001,-0.056247202475625674
1.6440000000000001,-0.04683025304528167
1.6460000000000001,-0.04696309036064716
1.6480000000000001,-0.010659542155479956
1.6500000000000001,-0.03720819721475736
1.6520000000000001,-0.03348454942551908
1.6540000000000001,-0.04268720436337314
1.6560000000000001,-0.030882576808237087
1.6580000000000001,-0.04648973773388761
1.6600000000000001,0.0066449997533229894
1.6620000000000001,-0.05658754615891077
1.6640000000000001,-0.014633936964980044
1.666,-0.036288952847256514
1.668,-0.03277098747443274
1.67,-0.010154001297303273
1.672,-0.05983523702586291
1.674,-0.026252778810217703
1.676,-0.02348441273467084
1.678,-0.06351169320532193
1.68,-0.051584820831337516
1.682,-0.058467770592189154
1.684,-0.02825662612737817
1.686,-0.06244558780074993
1.688,-0.058499224210947616
1.69,-0.020039311842274286
1.692,-0.052255078985618215
1.694,-0.04131986886217695
1.696,-0.04535794160581438
1.698,-0.051709900940608865
1.7,-0.03472397653933792
1.702,-0.01283224512921588
1.704,-0.04619343383964044
1.706,-0.05824406212864165
1.708,-0.04216942535575785
1.71,-0.058042565031817386
1.712,-0.03821723254105695
1.714,-0.053995981459040714
1.716,-0.06702000057841037
1.718,-0.01912974577027247
1.72,0.0039090893274438465
1.722,-0.036645945284735665
1.724,-0.05047318875793012
1.726,-0.04117504921832414
1.728,-0.03230110527507859
1.73,-0.044020202164601924
1.732,-0.017363693504375763
1.734,-0.020521472629551386
1.736,-0.024147417273626827
1.738,-0.04800207192594708
1.74,-0.08120667240098438
1.742,-0.04949191133774558
1.744,0.0035460279647530797
1.746,-6.058731065790475e-05
1.748,-0.02720813772819999
1.75,-0.035590382273843556
1.752,-0.02406075409371763
1.754,0.03559770678409237
1.756,0.005589011577105594
1.758,-0.022834559794453455
1.76,-0.0030867778462744383
1.762,0.029658975893990844
1.764,-0.038026179512586446
1.766,0.004182388620881848
1.768,0.007563810903120249
1.77,0.025911753938082198
1.772,0.04673121881260775
1.774,0.023368212900691444
1.776,0.030474895208808025
1.778,0.039265306780677287
1.78,0.032094411931270016
1.782,0.03661919292780004
1.784,0.04208170362098877
1.786,0.06878043180238458
1.788,0.03937964235619218
1.79,0.05188847505797098
1.792,0.05632698394787322
1.794,0.045787851875369615
1.796,0.05119141779789749
1.798,0.03507307042139536
1.8,0.07537715660579497
1.802,0.026446565794241303
1.804,0.08403996634856369
1.806,0.04862343262930827
1.808,0.050801785045799075
1.81,0.06580344780853148
1.812,0.03837991971295487
1.814,0.08767964547538482
1.816,0.06001820005221868
1.818,0.06113449917339331
1.82,0.08328017517858327
1.822,0.09118851141580937
1.824,0.09104045074650607
1.826,0.08672790378914079
1.828,0.07938366325507137
1.83,0.083008671977681
1.832,0.10096419060802496
1.834,0.0673922491045438
1.836,0.02593679829807921
1.838,0.06563139040535994
1.84,0.05820662921172072
1.842,0.018697395334180453
1.844,0.08530597043048758
1.846,0.03359291547308666
1.848,0.04257318226805255
1.85,0.05556597801983525
1.852,0.022801792740306172
1.854,0.012478730500656295
1.856,0.0073215609021971065
1.858,0.0002779209094212476
1.86,0.020590401314593915
1.862,0.022298070314999058
1.864,0.02230266454752587
1.866,0.013883752004841392
1.868,-0.0067454244040785795
1.87,0.022564217459942103
1.872,-0.029082668600720958
1.874,-0.019611465808736267
1.8760000000000001,-0.0415654706592042
1.8780000000000001,-0.022859978563332693
1.8800000000000001,-0.013713199054003478
1.8820000000000001,-0.08670419148456365
1.8840000000000001,-0.04984216115326588
1.8860000000000001,-0.04987842122979001
1.8880000000000001,-0.07121525718873152
1.8900000000000001,-0.04518912421853618
1.8920000000000001,-0.09853610142980485
1.8940000000000001,-0.06894912245513429
1.8960000000000001,-0.08858692867237747
1.8980000000000001,-0.09618294952953926
1.9000000000000001,-0.1102359640971628
1.9020000000000001,-0.12346171297233678
1.9040000000000001,-0.07242614855038766
1.9060000000000001,-0.08027151279518308
1.9080000000000001,-0.053029320149568904
1.9100000000000001,-0.05371683289970468
1.9120000000000001,-0.00045378443336112004
1.9140000000000001,0.010590357613219832
1.9160000000000001,0.041981022733786774
1.9180000000000001,0.012637010882733085
1.92,0.13762881711423436
1.922,0.12409865527782037
1.924,0.15564074077736462
1.926,0.19411671190988156
1.928,0.2760109030897023
1.93,0.319661944545115
1.932,0.36415876710553924
1.934,0.404384812716819
1.936,0.4957959276954165
1.938,0.5580639260017942
1.94,0.6005857384497646
1.942,0.6344775426538508
1.944,0.6560426575167184
1.946,0.7558485957731013
1.948,0.767290981870995
1.95,0.8156200057989402
1.952,0.8473537682834499
1.954,0.8448495870242613
1.956,0.903917488126638
1.958,0.9800055326992249
1.96,0.9806038388487746
1.962,0.9733418061737398
1.964,0.955064423165966
1.966,0.9536725839934239
1.968,0.9900178460273406
1.97,0.9791639242527703
1.972,0.9612830900376279
1.974,0.9219498453047899
1.976,0.894475547036215
1.978,0.8305615052284394
1.98,0.8361498443163013
1.982,0.80451793665
1.984,0.7672578547361483
1.986,0.7392582661814134
1.988,0.6457018709988323
1.99,0.5957003405549061
1.992,0.5851364688066752
1.994,0.4932750074895272
1.996,0.49311261221774955
1.998,0.43564502199906857
2.0,0.3552847927318402
2.0020000000000002,0.3306687463589903
2.004,0.2786650110610607
2.0060000000000002,0.2472441629654692
2.008,0.21879995705087832
2.0100000000000002,0.19424634353612483
2.012,0.13655406257612074
2.0140000000000002,0.11065242435185987
2.016,0.08067994329188224
2.0180000000000002,0.08069803272029222
2.02,0.03703649251471698
2.0220000000000002,0.04142698626192657
2.024,0.0060665230263318055
2.0260000000000002,-0.01695465535682329
2.028,-0.008813225411583712
2.0300000000000002,-0.0028098281805521586
2.032,-0.011056609247759568
2.0340000000000003,-0.004836420699041225
2.036,0.018437647474315175
2.0380000000000003,0.006672835551164904
2.04,-0.04339058069484693
2.0420000000000003,-0.028167286186255608
2.044,0.009608066834354632
2.0460000000000003,-0.046663189498316895
2.048,-0.012959082604858563
2.05,9.646944148715073e-05
2.052,-0.012086099312894397
2.054,-0.0015972807086125623
2.056,0.0033577929262146016
2.058,0.004158755486030995
2.06,-0.009692885059494935
2.062,0.01385671059349679
2.064,-0.0035263758888427693
2.066,-0.010500597562366478
2.068,0.015612745922748781
2.07,-0.015172491611483194
2.072,-0.02294196011549453
2.074,-0.01460712970511509
2.076,0.02415398830230601
2.078,0.004367533138557404
2.08,0.03465332702874797
2.082,0.03810147805577462
2.084,-0.02581227372311028
2.086,0.03272677501258803
2.088,0.013178653012719586
2.09,0.009218248571331323
2.092,-0.009138179502014298
2.094,0.017951986957643194
2.096,0.046961073057611935
2.098,0.025268614632480913
2.1,0.03648887663734589
2.102,0.03747129075513244
2.104,0.014674629431810962
2.106,0.012338065691760223
2.108,-0.013544961179279964
2.11,0.022990479058068735
2.112,-0.012845148815359355
2.114,0.036247153510692146
2.116,-0.0026797788944713462
2.118,0.025462753269898084
2.12,0.006664508867530223
2.122,0.0026511969483141444
2.124,-0.013822064119633987
2.126,0.046438793706729056
2.128,-0.005370175035926634
2.13,0.03412354292643372
2.132,0.04613809583665611
2.134,0.003976654329347303
2.136,0.019128380027882416
2.138,0.04218908458269341
2.14,0.044290237984204096
2.142,0.05257605678293634
2.144,0.011393991235822302
2.146,0.03641785932204631
2.148,0.0479299411560498
2.15,0.0113358628645417
2.152,0.002638980785948473
2.154,0.012647165778457856
2.156,-0.007512247242111952
2.158,0.0064459132062779185
2.16,0.05326667934735026
2.162,0.03946895420710861
2.164,0.03678567810288166
2.166,0.00984517162453299
2.168,0.018737864266216438
2.17,0.053506475060274034
2.172,0.06376110357518533
2.174,0.021236183278522187
2.176,0.01656933523063559
2.178,-0.0037706169967851692
2.18,0.06539177897555602
2.182,0.026375794894917877
2.184,0.02821958552235495
2.186,0.03175232429930311
2.188,0.026603703255413273
2.19,0.005714822769663371
2.192,0.003802771678812513
2.194,0.012857793233155921
2.196,0.03628765315314676
2.198,0.027294487773062794
2.2,0.03218941617627633
2.202,0.00042863595905060295
2.204,0.005505290472000653
2.206,0.01790715145800422
2.208,-0.03912881086122069
2.21,0.024866423304581615
2.212,0.01626485656694833
2.214,-0.011448046944803319
2.216,0.006466383056672499
2.218,-0.012846955368668297
2.22,-0.018169089613894192
2.222,0.007344101629182143
2.224,-0.01591768932589658
2.226,-0.018196405927000742
2.228,-0.03138739560846479
2.23,-0.056122557107076754
2.232,-0.012355552756003002
2.234,-0.014659501925239411
2.236,0.015942676337777288
2.238,-0.028400572474947643
2.24,-0.04721247305949851
2.242,-0.013314506998858736
2.244,-0.0376247933265793
2.246,-0.05731126484738551
2.248,-0.070982931746398
2.25,-0.04985460760560849
2.2520000000000002,-0.019902787877862392
2.254,-0.058513580493310915
2.2560000000000002,-0.06999627727797744
2.258,-0.07486970985265431
2.2600000000000002,-0.06084475604901116
2.262,-0.05075018262696874
2.2640000000000002,-0.07870487354570657
2.266,-0.04731946122617807
2.2680000000000002,-0.058207727031069245
2.27,-0.06501567040824383
2.2720000000000002,-0.07340093873820172
2.274,-0.04956709702161728
2.2760000000000002,-0.11663325710238635
2.278,-0.10934054113937335
2.2800000000000002,-0.0883098353246168
2.282,-0.07807879711560603
2.2840000000000003,-0.08870691682398398
2.286,-0.08745571478998665
2.2880000000000003,-0.09063819004722462
2.29,-0.08858164313782711
2.2920000000000003,-0.09005258548769306
2.294,-0.09462096181041396
2.2960000000000003,-0.13617546071275333
2.298,-0.07191272052191958
2.3000000000000003,-0.05992040153337322
2.302,-0.11109508350888242
2.3040000000000003,-0.11307083651908069
2.306,-0.11688609718301984
2.308,-0.10973954237847286
2.31,-0.10062094466299232
2.312,-0.07852556966550645
2.314,-0.11557914946508133
2.316,-0.07214588085166065
2.318,-0.13362768839016015
2.32,-0.09295778483357198
2.322,-0.13472551797033241
2.324,-0.08355852097737955
2.326,-0.10895995849656662
2.328,-0.08311411876521191
2.33,-0.119818119995482
2.332,-0.09053259276721891
2.334,-0.09815169125351583
2.336,-0.1045654462984319
2.338,-0.1357172700223025
2.34,-0.096876663082649
2.342,-0.1413532223987956
2.344,-0.09507432807619584
2.346,-0.06750040491321294
2.348,-0.05550357069666789
2.35,-0.051798540840959334
2.352,-0.06909030202144661
2.354,-0.0683057246644715
2.356,-0.08466489635325342
2.358,-0.06199465810058962
2.36,-0.07482696088377758
2.362,-0.05857720494323946
2.364,-0.054797608917727475
2.366,-0.06473467552832267
2.368,-0.04434618289015552
2.37,-0.04452140003780079
2.372,-0.04371552661489954
2.374,-0.041643598224846416
2.376,-0.022508077644923886
2.378,-0.04693083608904798
2.38,0.003282677011113802
2.382,-0.026490162556949456
2.384,-0.006137342419587494
2.386,-0.028449755197928583
2.388,-0.05602696573720281
2.39,-0.035351796861348116
2.392,-0.004928955336873167
2.394,-0.03897745570393908
2.396,-0.0021498390408269535
2.398,-0.005753948550728867
2.4,-0.00038730626858564376
2.402,-0.003914906058602827
2.404,-0.02546274692920838
2.406,-0.0027958131109245624
2.408,0.014765772718995589
2.41,0.017013930198451092
2.412,0.026991763352526545
2.414,0.02642695201616512
2.416,0.0074144852957054586
2.418,0.006848211321451695
2.42,0.03753439623799494
2.422,0.009193666173927827
2.424,0.0021495085102254327
2.426,0.023010718123197448
2.428,0.04648713492692975
2.43,0.045744607141031665
2.432,0.026303528990541208
2.434,0.04240962785993957
2.436,0.09068478956790219
2.438,0.009251536055985688
2.44,0.04553128895025928
2.442,0.04922826086975951
2.444,0.04024161891475062
2.446,0.03918112848732875
2.448,0.007078271860131135
2.45,0.011060294792349889
2.452,0.04238176310517237
2.454,0.05914080855848865
2.456,0.00507498604445878
2.458,0.05539268126525937
2.46,0.06363173718847678
2.462,0.04587100330418965
2.464,0.0034248277092913436
2.466,0.05382594806450041
2.468,0.05121659494758912
2.47,0.03893523393104535
2.472,0.028847609410867312
2.474,0.05974996590555793
2.476,0.06144183722767992
2.478,0.03667753058992316
2.48,0.0427036393927437
2.482,0.047504084809542574
2.484,0.03669982179441632
2.486,0.029871351690249674
2.488,0.03958027819254583
2.49,0.046652213906307936
2.492,0.07375317363115758
2.494,0.026795060277400404
2.496,0.06543630744438639
2.498,0.06570646974943949
2.5,0.0499633045440471
2.5020000000000002,0.026145204545638647
2.504,0.04485171945737671
2.5060000000000002,0.030424730937945357
2.508,0.03955969442224879
2.5100000000000002,0.07709210412631115
2.512,0.08099169593011758
2.5140000000000002,0.05705176116570567
2.516,0.047253169444158576
2.5180000000000002,0.0033841288769887543
2.52,0.06032589353320606
2.5220000000000002,0.03209523356272213
2.524,0.0476437836438014
2.5260000000000002,0.05932609440535741
2.528,0.037734543408587826
2.5300000000000002,0.018255678233654003
2.532,0.0793774297055812
2.5340000000000003,0.06442272436900157
2.536,0.06643415908149025
2.5380000000000003,0.0225527176551994
2.54,0.05552029017919625
2.5420000000000003,0.06334604009770504
2.544,0.026811100025392328
2.5460000000000003,0.08008841784428139
2.548,0.02130838961990406
2.5500000000000003,0.03810519564521315
2.552,0.05395197169991123
2.5540000000000003,0.028485729983665695
2.556,0.10409827048503
2.5580000000000003,0.04832589702653156
2.56,0.03856600775395453
2.562,0.03660124384735832
2.564,0.02358835445720439
2.566,0.023122442901951756
2.568,0.03393112464039977
2.57,0.055562694155498665
2.572,0.029800979608718435
2.574,0.07858843494013809
2.576,0.04807520030881821
2.578,0.06073166717679502
2.58,0.05119367796087819
2.582,0.029185303998506395
2.584,0.06715539407861847
2.586,0.07623439007774445
2.588,0.05823585113508687
2.59,0.036152189554025674
2.592,0.04098780184900476
2.594,0.06933386049044264
2.596,0.12393870560444674
2.598,0.09736959649464211
2.6,0.07911600116062373
2.602,0.06676656749761525
2.604,0.03798416284878857
2.606,0.055164731693529714
2.608,0.07868079514444971
2.61,0.03093736749336318
2.612,0.0680722801088249
2.614,0.05895170585412185
2.616,0.08483792767474758
2.618,0.10310739911991959
2.62,0.08479083409101237
2.622,0.07404801226933072
2.624,0.10863599572566249
2.626,0.11577465695956489
2.628,0.0837981844387559
2.63,0.06552974908655784
2.632,0.11146680635250525
2.634,0.10951988092305917
2.636,0.13865747129295408
2.638,0.13188685514490534
2.64,0.0930396759845597
2.642,0.1282449763072776
2.644,0.08851941699600349
2.646,0.12834511433191745
2.648,0.12212623650985446
2.65,0.14425367559113011
2.652,0.10373984025769355
2.654,0.12119665737922398
2.656,0.09880994174735652
2.658,0.14958639321721526
2.66,0.11329501421216984
2.662,0.12535248172561406
2.664,0.13967387734903539
2.666,0.13237694060013916
2.668,0.08842672231390414
2.67,0.16460666778408828
2.672,0.12757711249931103
2.674,0.1391208260525242
2.676,0.12895476011078238
2.678,0.13253487624470728
2.68,0.1539730316986367
2.682,0.15580680058399354
2.684,0.12322826734601885
2.686,0.1533916927390169
2.688,0.09589752212653331
2.69,0.13255887535255795
2.692,0.09490408955011426
2.694,0.09961863232636188
2.696,0.14372253116370687
2.698,0.12868849523498166
2.7,0.10881758079297416
2.702,0.09823397738739616
2.704,0.10161405616046508
2.706,0.12395507269596279
2.708,0.07929277095342145
2.71,0.08979896921881672
2.712,0.10166710793385439
2.714,0.09786379996515569
2.716,0.06029425993236015
2.718,0.04631603393317885
2.72,0.07462960083318802
2.722,0.06273839720217897
2.724,0.05202600075535367
2.726,0.027437875609273518
2.728,0.03829138157996117
2.73,0.019280579525798626
2.732,0.016489395236187542
2.734,0.036012517218483864
2.736,0.02704370304548089
2.738,0.00297133240094085
2.74,0.012732780425337271
2.742,-0.02613679476548817
2.744,-0.016504076976668808
2.746,-0.023857549434709684
2.748,-0.004535957452832751
2.75,0.00043483282517164934
2.7520000000000002,-0.047624661071419765
2.754,-0.07543636386811875
2.7560000000000002,-0.055441746738318545
2.758,-0.06073697366418195
2.7600000000000002,-0.03475948081890453
2.762,-0.008735572023162927
2.7640000000000002,-0.03872862390021044
2.766,-0.0748332777162414
2.7680000000000002,0.003942159967685412
2.77,0.02719895289212645
2.7720000000000002,0.03825504605057155
2.774,0.104616377764576
2.7760000000000002,0.11232865596138915
2.778,0.18531004906651166
2.7800000000000002,0.19095511854496008
2.782,0.23499380404613315
2.7840000000000003,0.27880469518267864
2.786,0.3340737874216242
2.7880000000000003,0.3783825729579662
2.79,0.444636081063594
2.7920000000000003,0.4690609545249124
2.794,0.5422749397386114
2.7960000000000003,0.6072980936388037
2.798,0.6468722001394268
2.8000000000000003,0.6693718372763883
2.802,0.7542452798231702
2.8040000000000003,0.7773851843016893
2.806,0.7989218898330191
2.8080000000000003,0.9131211234281
2.81,0.8886634019972621
2.8120000000000003,0.9439292601336614
2.814,0.9681082373133763
2.816,0.995537002856244
2.818,1.0021474564435555
2.82,1.0269697070743953
2.822,1.003471598446597
2.824,1.0318483823708755
2.826,0.9910621811738497
2.828,0.9731784713189878
2.83,0.9386526414790519
2.832,0.9314169187786775
2.834,0.8992826331353849
2.836,0.8307010791210632
2.838,0.8290997272280196
2.84,0.8070459861406273
2.842,0.7608261145850019
2.844,0.6555433273260786
2.846,0.642079602947883
2.848,0.6007161923899029
2.85,0.5953088824583095
2.852,0.5443554951039551
2.854,0.4797426514955598
2.856,0.43805949311103776
2.858,0.3894428936210505
2.86,0.32819008504132674
2.862,0.27586098171863405
2.864,0.2423016796172582
2.866,0.1884829657526924
2.868,0.17217946965072922
2.87,0.11530353108571806
2.872,0.1462507344215792
2.874,0.11959002788474087
2.876,0.1336413673777034
2.878,0.06473888572946039
2.88,0.03290900770515165
2.882,0.04191531286756764
2.884,0.009495122212997682
2.886,0.034753135880940644
2.888,-0.013398747837329633
2.89,-0.026829670209416602
2.892,-0.02386338032353088
2.894,-0.00913517613089769
2.896,-0.019809067640113903
2.898,-0.0032341780497146463
2.9,-0.009520735205781184
2.902,0.015436634112330417
2.904,-0.00184135505108716
2.906,0.00903395475238491
2.908,0.006556902489010771
2.91,-0.027384109537561263
2.912,-0.0028142233985359033
2.914,-0.01878238465545145
2.916,-0.001893918710169468
2.918,0.0038356080190516334
2.92,-0.0008891593218210364
2.922,0.0015702127402983847
2.924,-0.00755604218707172
2.926,0.024105011659536994
2.928,-0.00986655403223331
2.93,0.0008043554512113945
2.932,0.048347139122102326
2.934,-8.134957507021647e-05
2.936,0.011994987876365984
2.938,-0.0045465408614282655
2.94,0.019706963935876898
2.942,0.03961157413003325
2.944,-0.009847425697907319
2.946,0.005861408645977781
2.948,-0.023209550133883483
2.95,0.026448473384232684
2.952,0.060929770167173256
2.954,0.04220455081114295
2.956,-0.006141420034964301
2.958,0.01723665511620598
2.96,-0.010609409722372988
2.962,-0.0032979208427866766
2.964,0.02578624176151256
2.966,0.04961291150209686
2.968,-0.010979236298860894
2.97,-0.013077064487314357
2.972,0.007320607825760618
2.974,-0.016930526664702846
2.976,0.020404741561327138
2.978,0.002718050568981609
2.98,0.018584673322029913
2.982,0.013310198221133107
2.984,0.009092014283700114
2.986,0.0276965735712053
2.988,0.010362887841546148
2.99,-0.008282819046207843
2.992,-0.006717189494744277
2.994,-0.004951145779196944
2.996,0.0015436036243916481
2.998,-0.001566177383342901
3.0,0.00544014431136727
3.0020000000000002,0.023860221177412037
3.004,-0.02314213446649865
3.0060000000000002,-0.010329312509864512
3.008,-0.0554012818699709
3.0100000000000002,-0.01940206483523201
3.012,-0.05951511302815474
3.0140000000000002,-0.0025526006423710916
3.016,-0.04169954992108477
3.0180000000000002,-0.0546396168181577
3.02,0.002738121721010336
3.0220000000000002,-0.039227426242029656
3.024,0.020985685268589314
3.0260000000000002,0.0061734203503825275
3.028,-0.012668710241750775
3.0300000000000002,-0.014023290445384624
3.032,-0.014380948122487237
3.0340000000000003,0.015546228800203211
3.036,-0.05082144179770271
3.0380000000000003,-0.014848007606721685
3.04,-0.04268031474063383
3.0420000000000003,-0.0193283185259839
3.044,-0.028271455464079675
3.0460000000000003,-0.026165766286478955
3.048,-0.01873378042754891
3.0500000000000003,-0.02045548129427589
3.052,0.011194179192271163
3.0540000000000003,-0.055748500903769774
3.056,-0.01152988896731531
3.0580000000000003,-0.02977828483910326
3.06,-0.04960441573366625
3.0620000000000003,-0.046375116044489365
3.064,-0.01017827591668364
3.0660000000000003,-0.044298677507529916
3.068,-0.05253091534189909
3.0700000000000003,-0.051918494221924516
3.072,-0.04191725458231626
3.074,-0.018577127061698576
3.076,-0.0008755248632428408
3.078,-0.03854302615334302
3.08,-0.05761478657149323
3.082,-0.07249749390405409
3.084,-0.07339925381713408
3.086,-0.08942735056703799
3.088,-0.07943575065077521
3.09,-0.048238345444224055
3.092,-0.03744672564829251
3.094,-0.0317168979137698
3.096,-0.07650342197091509
3.098,-0.08555272947528601
3.1,-0.09269859328202866
3.102,-0.07591421637429761
3.104,-0.10308182896834046
3.106,-0.0977624680271322
3.108,-0.10433444962766744
3.11,-0.08536664715198937
3.112,-0.09681411260138299
3.114,-0.07695805258683078
3.116,-0.08786466617322536
3.118,-0.10536425905205016
3.12,-0.13676581204026503
3.122,-0.1144382255640128
3.124,-0.11833858725392324
3.126,-0.12465571580907737
3.128,-0.08754080271968792
3.13,-0.13030794112042624
3.132,-0.15221511298779872
3.134,-0.12149954675552152
3.136,-0.1469172620999172
3.138,-0.15084460250750642
3.14,-0.14798783459708342
3.142,-0.1150920353116352
3.144,-0.18185841651875675
3.146,-0.14777755015586416
3.148,-0.14127377122651336
3.15,-0.18242617806979283
3.152,-0.17613290017171257
3.154,-0.15957119803520836
3.156,-0.19753038394608552
3.158,-0.17608616992107634
3.16,-0.15493649774426335
3.162,-0.16536053152744132
3.164,-0.1575431056899688
3.166,-0.1828201441638942
3.168,-0.1727967822089369
3.17,-0.18659353477910107
3.172,-0.20469453120946884
3.174,-0.1615527913860169
3.176,-0.20116645576836123
3.178,-0.19358768036501656
3.18,-0.16328505396582577
3.182,-0.14242162972565056
3.184,-0.18512466224437868
3.186,-0.15298565630778338
3.188,-0.173055678411938
3.19,-0.19023460320135732
3.192,-0.18061124533842382
3.194,-0.13164158688896174
3.196,-0.17632716998697062
3.198,-0.16695797159512343
3.2,-0.11786606896853721
3.202,-0.17591543348775826
3.204,-0.12748407412303825
3.206,-0.17638427229070386
3.208,-0.1554225954688189
3.21,-0.19120803207671339
3.212,-0.1605484456062477
3.214,-0.1321893419958593
3.216,-0.1320357621753666
3.218,-0.12397693948681247
3.22,-0.13811130464842292
3.222,-0.1548080169617344
3.224,-0.10826406866564564
3.226,-0.12036007597305967
3.228,-0.11941103043765604
3.23,-0.1616421319707898
3.232,-0.12742682180206372
3.234,-0.12242636261906806
3.236,-0.15262991160775113
3.238,-0.13564738600866655
3.24,-0.1028854032092209
3.242,-0.08573019886118868
3.244,-0.1189717694295875
3.246,-0.09926455693480651
3.248,-0.12409672234570276
3.25,-0.09857787367858428
3.2520000000000002,-0.09849635850747893
3.254,-0.08318346319535816
3.2560000000000002,-0.06938431829167731
3.258,-0.0791744410187806
3.2600000000000002,-0.10620683688535512
3.262,-0.06274734343513487
3.2640000000000002,-0.09517010582759614
3.266,-0.07265598307416789
3.2680000000000002,-0.07846493359731138
3.27,-0.05630279061376171
3.2720000000000002,-0.06995157081345152
3.274,-0.0941209433360069
3.2760000000000002,-0.06739064638019689
3.278,-0.08513225167737312
3.2800000000000002,-0.08122319328478034
3.282,-0.06530778507349017
3.2840000000000003,-0.08295850797870556
3.286,-0.05860123626672383
3.2880000000000003,-0.08333009647657866
3.29,-0.04911140832201896
3.2920000000000003,-0.06376875079045573
3.294,-0.05135982797842863
3.2960000000000003,-0.03964372708627016
3.298,-0.05989435987577989
3.3000000000000003,-0.05607378815876607
3.302,-0.05629720566054751
3.3040000000000003,-0.07165000360502384
3.306,-0.02717770231079651
3.3080000000000003,-0.054175423372679464
3.31,-0.05749464057295703
3.3120000000000003,-0.04780129897278686
3.314,-0.031639245681217065
3.3160000000000003,-0.012864721664288942
3.318,-0.028920384202307386
3.3200000000000003,-0.041624301904514986
3.322,-0.06542543484005643
3.3240000000000003,-0.05176027605354702
3.326,-0.05639834546857085
3.3280000000000003,-0.03655401028291881
3.33,-0.053438595542943904
3.332,-0.016172239816369414
3.334,-0.052860433592150084
3.336,-0.0515853582146429
3.338,-0.062255900989881686
3.34,-0.04794770235665338
3.342,-0.040032604415838356
3.344,-0.028792488548761222
3.346,-0.04694820640905548
3.348,-0.07611496678447599
3.35,-0.05027562340165879
3.352,0.006359248629989849
3.354,-0.02653438685444613
3.356,-0.04521572938479574
3.358,-0.05449953829988351
3.36,0.011465409582325744
3.362,-0.020084665937037352
3.364,-0.05168775561305805
3.366,-0.08047456240121036
3.368,0.01639010524991023
3.37,-0.04282582203701204
3.372,-0.06690490255099983
3.374,-0.05091646763332049
3.376,-0.036829304903597246
3.378,-0.05437885793479156
3.38,-0.04920187905088467
3.382,-0.036310882008948046
3.384,-0.05472064090368942
3.386,-0.04553689894164692
3.388,-0.057606103070339504
3.39,-0.07937666872828433
3.392,-0.053109423673849444
3.394,-0.05515923891611933
3.396,-0.016253789902735325
3.398,-0.046101089591906494
3.4,-0.025220928959606616
3.402,-0.09339717299464084
3.404,-0.06636723364551769
3.406,-0.025276141638536764
3.408,-0.044906163830390575
3.41,-0.06870569422650068
3.412,-0.03505194480874914
3.414,-0.03849941528121349
3.416,-0.013837967151395092
3.418,-0.06942028485609872
3.42,-0.049417684416218084
3.422,-0.031071109000485788
3.424,-0.06700865341989054
3.426,-0.055663630864141236
3.428,-0.06491137389532445
3.43,-0.06792412050249164
3.432,-0.044654005911003214
3.434,-0.08051535146909877
3.436,-0.07971629317417026
3.438,-0.04894329427732953
3.44,-0.04735981054673032
3.442,-0.03238795844607301
3.444,-0.025295336625274875
3.446,-0.03249878646801342
3.448,-0.09512710632968036
3.45,-0.04566515029846642
3.452,-0.023338024432472564
3.454,-0.022044636034701783
3.456,-0.05756261196527182
3.458,-0.05059578094581842
3.46,-0.04193588382271389
3.462,-0.02989153957562862
3.464,-0.012051242174042472
3.466,-0.03514477121650181
3.468,-0.038707423269676015
3.47,-0.027986836848915966
3.472,-0.009754989331932626
3.474,0.010628702704627471
3.476,-0.05836615619092159
3.478,-0.02475311824304477
3.48,0.014933424845993727
3.482,0.009000357062690298
3.484,-0.007547382271848188
3.486,0.015855990791477655
3.488,-0.04151164047156149
3.49,0.010318261613691856
3.492,0.029303784326888054
3.494,0.02659528475819381
3.496,0.026106397781761277
3.498,0.022032777728252885
3.5,0.02680876072828478
3.5020000000000002,0.01586971598425168
3.504,0.05951688549797146
3.5060000000000002,0.06569852740209083
3.508,0.037388796727189144
3.5100000000000002,0.03363377012949022
3.512,0.01877143941695529
3.5140000000000002,0.04777742138875626
3.516,0.042566524501165756
3.5180000000000002,0.01791484063046253
3.52,0.04272415812528357
3.5220000000000002,0.01690849561823636
3.524,0.048736489706135075
3.5260000000000002,0.05069414141812985
3.528,0.011021788717134995
3.5300000000000002,0.061288032441465634
3.532,0.042188233823699656
3.5340000000000003,0.025395805011491357
3.536,0.03756666229911594
3.5380000000000003,0.04000101998189027
3.54,0.04473582341350145
3.5420000000000003,0.055486106822442
3.544,0.06270742197400064
3.5460000000000003,0.015331910090819606
3.548,0.03499735689295287
3.5500000000000003,0.0025221833376254665
3.552,0.018370488214842856
3.5540000000000003,-0.0040816170609283275
3.556,0.006259744170734369
3.5580000000000003,0.06757937142715761
3.56,-0.012154868730211002
3.5620000000000003,-0.024663726759679386
3.564,-0.009272908129671735
3.5660000000000003,0.03623903734736275
3.568,-0.018530576906674208
3.5700000000000003,-0.00017902314391764207
3.572,0.01261800334439743
3.5740000000000003,-0.005909256108765047
3.576,-0.03257475476529983
3.5780000000000003,-0.02346166255064372
3.58,-0.03282800208508064
3.5820000000000003,-0.031192117293186127
3.584,-0.04793504646043868
3.586,-0.0542253605479465
3.588,-0.06651687106460914
3.59,-0.042602726478727745
3.592,-0.06639409193309921
3.594,-0.08632193730028058
3.596,-0.0651332942323274
3.598,-0.0969290088031925
3.6,-0.10207547894423527
3.602,-0.09139890059033234
3.604,-0.09935400483867116
3.606,-0.12550610273106863
3.608,-0.09258942767348083
3.61,-0.1257016763054018
3.612,-0.10111334365153134
3.614,-0.08895404912322949
3.616,-0.12198644781654211
3.618,-0.12187266404757927
3.62,-0.13524868098634707
3.622,-0.10979194981672526
3.624,-0.09968755683133806
3.626,-0.05451524045250938
3.628,-0.011527760125742116
3.63,0.04100779988385293
3.632,0.018039891041873653
3.634,0.08501410578994069
3.636,0.09513874895664254
3.638,0.09805668694216604
3.64,0.16626160032951304
3.642,0.22781882934847683
3.644,0.3092444113220955
3.646,0.3056647269251044
3.648,0.3696466486796178
3.65,0.38386725092487517
3.652,0.5246429793492848
3.654,0.5223594926692833
3.656,0.6265606991559918
3.658,0.6506208826947193
3.66,0.68821577734023
3.662,0.7343553440395403
3.664,0.7905459384547548
3.666,0.8607497968601484
3.668,0.8238454766195283
3.67,0.8973149020903248
3.672,0.9137201349107749
3.674,0.9122657395677004
3.676,0.919020665299056
3.678,0.922136941311052
3.68,0.9388791484644716
3.682,0.9409308660732993
3.684,0.9577588209064833
3.686,0.9081497552742401
3.688,0.85416303517811
3.69,0.8765550185599414
3.692,0.8358152720057688
3.694,0.7725380540375856
3.696,0.7324763175441228
3.698,0.6931927186523155
3.7,0.6643937585983891
3.702,0.6418275848650313
3.704,0.5924211452959154
3.706,0.5142059009313232
3.708,0.5118616103576997
3.71,0.4793923236304037
3.712,0.39694117123430045
3.714,0.3073700784464314
3.716,0.2666990645576651
3.718,0.2473650351285193
3.72,0.2102839228158539
3.722,0.18290604582775608
3.724,0.10271381325933682
3.726,0.08754892166010764
3.728,0.10114661196298211
3.73,0.035975907078339725
3.732,0.03598820154111056
3.734,0.050738263671867144
3.736,-0.005337801860166143
3.738,-0.012797334560846058
3.74,-0.016545256898999657
3.742,-0.03972062721818252
3.744,-0.022182417626468713
3.746,-0.04299105216293138
3.748,-0.07630799864384705
3.75,-0.05453822225779906
3.7520000000000002,-0.06562187124547228
3.754,-0.06832871298567328
3.7560000000000002,-0.0016725274650805089
3.758,-0.0332907283043011
3.7600000000000002,-0.026394793622131946
3.762,-0.0900606572831619
3.7640000000000002,-0.032227856389575496
3.766,-0.0718097581676512
3.7680000000000002,-0.0746159626983331
3.77,-0.021988686993311232
3.7720000000000002,-0.017079056745758936
3.774,-0.01905803227688914
3.7760000000000002,-0.03646249052158949
3.778,-0.07369468999640719
3.7800000000000002,-0.037749424258631
3.782,-0.04423629003594897
3.7840000000000003,-0.06553619293991
3.786,-0.035367356566279276
3.7880000000000003,-0.04853169116785761
3.79,-0.049059343969436
3.7920000000000003,-0.0545719629961876
3.794,-0.0511328936945973
3.7960000000000003,-0.03193544404002787
3.798,-0.03394613792570529
3.8000000000000003,-0.022349991209863095
3.802,-0.008480215304537587
3.8040000000000003,-0.04293003950669481
3.806,-0.024895624227825746
3.8080000000000003,-0.08263370701150068
3.81,-0.011802685274346348
3.8120000000000003,-0.03194200660465876
3.814,-0.05583572005885267
3.8160000000000003,-0.029705392782061097
3.818,-0.020957364683328674
3.8200000000000003,-0.017672575134704677
3.822,-0.03311523209432597
3.8240000000000003,-0.009702116522457047
3.826,-0.0678832139427872
3.8280000000000003,-0.006159532557115366
3.83,-0.02363727406497537
3.8320000000000003,-0.041615637114151206
3.834,-0.04078902025776086
3.8360000000000003,-0.018354248584384968
3.838,-0.04323743338859896
3.84,-0.03164862741959474
3.842,-0.04849527354470455
3.844,-0.07003798073372527
3.846,0.020163168048444022
3.848,-0.02236740370709283
3.85,-0.020617808199536354
3.852,-0.041317371291275884
3.854,-0.030106020465536967
3.856,-0.036427763476566746
3.858,-0.02827270416415385
3.86,-0.02099524246429647
3.862,0.016778178416525034
3.864,-0.03131439702932239
3.866,-0.010533305036286283
3.868,-0.021133759495417855
3.87,-0.032045945512884
3.872,-0.02286751463111458
3.874,-0.012395604767080914
3.876,-0.04848697319600444
3.878,0.0027943620440554397
3.88,-0.04382236076057407
3.882,-0.03198162468983457
3.884,-0.03193745570165498
3.886,-0.010805255779892385
3.888,-0.04250020606248948
3.89,-0.01200996513579402
3.892,-0.04053318375341029
3.894,-0.005711597662106157
3.896,-0.06632949149330061
3.898,-0.04515719168479687
3.9,-0.039397211096193
3.902,0.00032103418335803144
3.904,-0.023757825696571158
3.906,-0.049926109214999036
3.908,-0.015550317033745067
3.91,-0.031964148081628924
3.912,-0.044810902240609
3.914,-0.006146175116593726
3.916,-0.03529862010377594
3.918,-0.057374800186550216
3.92,-0.0509404890738979
3.922,-0.07151156151513954
3.924,-0.04412159707789426
3.926,-0.051469342932433035
3.928,-0.043045854907258964
3.93,-0.06831969316492276
3.932,-0.050055531076016985
3.934,-0.06943580764191827
3.936,-0.04831298256712394
3.938,-0.030413890326114176
3.94,-0.03731693843168085
3.942,-0.03535377359124022
3.944,-0.04668957980214212
3.946,-0.05893284971365438
3.948,-0.06498960373098513
3.95,-0.06417056358844994
3.952,-0.05590753646115579
3.954,-0.06290015463588652
3.956,-0.11116786804546921
3.958,-0.05371873995352181
3.96,-0.03773850608229694
3.962,-0.06161230161932231
3.964,-0.08756303876809035
3.966,-0.0921946153627485
3.968,-0.08023372559103141
3.97,-0.08908563128426236
3.972,-0.08352543190930094
3.974,-0.09732825227544024
3.976,-0.08144262541292349
3.978,-0.10683004664906268
3.98,-0.0888752034287646
3.982,-0.14455764743546692
3.984,-0.14003122044949667
3.986,-0.16548558739593394
3.988,-0.14089220491403442
3.99,-0.12323640702023285
3.992,-0.0875270268979713
3.994,-0.11475621373654814
3.996,-0.1117774457515575
3.998,-0.15098805152147265
4.0,-0.13140440732689623
4.002,-0.08575508874110493
4.0040000000000004,-0.16891962437933475
4.006,-0.08014034167028938
4.008,-0.14683165848267837
4.01,-0.11964856565030167
4.0120000000000005,-0.13425400134227955
4.014,-0.1529097688807161
4.016,-0.0992215530147647
4.018,-0.16164849219474556
4.0200000000000005,-0.15576747082284523
4.022,-0.12377666196928727
4.024,-0.15178666544456518
4.026,-0.12251120319198347
4.0280000000000005,-0.13765302655482817
4.03,-0.16496559101279007
4.032,-0.14568930915254077
4.034,-0.13605689944482177
4.0360000000000005,-0.15030648027439275
4.038,-0.12813939362428545
4.04,-0.14591025072936512
4.042,-0.12146140536149086
4.0440000000000005,-0.13300232277911586
4.046,-0.14285036072597396
4.048,-0.13013007551752026
4.05,-0.14863536613555617
4.0520000000000005,-0.13770696925859366
4.054,-0.10703102385989914
4.056,-0.13567169273927795
4.058,-0.10685355889829373
4.0600000000000005,-0.11584857881977172
4.062,-0.13012199576741296
4.064,-0.13717356817786697
4.066,-0.11839934998924313
4.0680000000000005,-0.13983042730274364
4.07,-0.09424368952877185
4.072,-0.0895144419791519
4.074,-0.09978111844301729
4.0760000000000005,-0.09935698320536754
4.078,-0.08336242727484794
4.08,-0.0962093333478786
4.082,-0.08167489849470612
4.0840000000000005,-0.06739005615043123
4.086,-0.05164104529360563
4.088,-0.05258219942503669
4.09,-0.09817713699399092
4.0920000000000005,-0.0921537267203108
4.094,-0.05180475987019004
4.096,-0.09390617322720128
4.098,-0.12669407051031684
4.1,-0.03197936589074697
4.102,-0.046266926682573734
4.104,-0.027178245611558773
4.106,-0.029737973194077658
4.108,-0.06141396621086351
4.11,-0.021929232810672557
4.112,-0.0005838808646480148
4.114,-0.07157547820865587
4.116,0.011658311398904227
4.118,0.002985160409788766
4.12,-0.0007108334176425535
4.122,-0.04014098738059391
4.124,-0.002818420944039078
4.126,-0.011614801442878835
4.128,-0.013883570552971493
4.13,-0.0019445149805732698
4.132,0.02018825866121423
4.134,0.01262257214954924
4.136,0.005742791412390258
4.138,-0.01444149158657428
4.14,0.020679055013811284
4.142,-0.021042529934070152
4.144,-0.006538987105624368
4.146,-0.04790822887656403
4.148,-0.016994932823209217
4.15,0.011122926461862487
4.152,0.013817877824712102
4.154,0.012992611049957239
4.156,0.004265191462826494
4.158,0.042163503746896716
4.16,0.012102180195041973
4.162,0.016411224023560822
4.164,0.04180187849895525
4.166,0.02742790942714406
4.168,0.020855317937149186
4.17,0.008161366342185557
4.172,0.012415609894403122
4.174,-0.014570695617437068
4.176,0.06273021905107054
4.178,0.003310925570060968
4.18,0.01388623239495217
4.182,0.03277758011821168
4.184,0.008908919304461835
4.186,0.007728819660848157
4.188,0.013494338994664071
4.19,0.04357925152098338
4.192,0.009910400677785338
4.194,0.016593738626785138
4.196,0.058227857814582375
4.198,-0.0010610468370177075
4.2,0.0489375281529189
4.202,0.0346267268478315
4.204,0.04629418327626944
4.206,0.0250284887076809
4.208,0.027683043951628718
4.21,0.007483869690703535
4.212,0.011563237506224426
4.214,0.04852540849862982
4.216,0.014599935558869534
4.218,0.014553149631132514
4.22,0.003719203778831044
4.222,0.03501918825607251
4.224,0.032041365116640484
4.226,-0.008464718942456139
4.228,0.005483980730187276
4.23,0.03568235683275492
4.232,0.022237038708011136
4.234,0.021329746511873676
4.236,0.033807812213842665
4.238,0.05977364214050389
4.24,0.058492095960284554
4.242,0.03915623508065777
4.244,0.045161715158498025
4.246,0.06443487089978683
4.248,0.048633255271201825
4.25,0.008056193074709605
4.252,0.047047553315587964
4.2540000000000004,0.05579852968625224
4.256,0.0445882893620226
4.258,0.006606186477549675
4.26,0.04927102546630573
4.2620000000000005,0.037219788774721346
4.264,0.0006817241418456388
4.266,0.023764576225182885
4.268,0.04596069119402064
4.2700000000000005,0.03368639419364538
4.272,0.034249951600165876
4.274,0.06007421721563637
4.276,0.02972173964210425
4.2780000000000005,0.019730561563327215
4.28,0.03190343256918781
4.282,0.03851604182055393
4.284,0.03658846360761752
4.2860000000000005,0.0349450195797259
4.288,0.0541396637482143
4.29,0.0442045046789013
4.292,0.022809795172950127
4.2940000000000005,0.07757558102634148
4.296,0.01216585126760734
4.298,0.017680275383549264
4.3,0.021388592111550482
4.3020000000000005,0.017522868369087716
4.304,0.03809345416829413
4.306,0.03765298561967318
4.308,0.04360103823306794
4.3100000000000005,0.07246716692647469
4.312,0.06166588044884101
4.314,0.06468379248564772
4.316,0.06322849009791523
4.3180000000000005,0.06493303864198095
4.32,0.03392432372345553
4.322,0.058708873936189836
4.324,0.0766226412961441
4.3260000000000005,0.0674429692674635
4.328,0.042968243303543895
4.33,0.048288345758949844
4.332,0.07252514749735467
4.3340000000000005,0.06725181912704876
4.336,0.08743366480681708
4.338,0.0901230383551378
4.34,0.08601281747811368
4.3420000000000005,0.0887290583757403
4.344,0.10688432836220155
4.346,0.09130461997192527
4.348,0.12905053133959712
4.3500000000000005,0.07756835214801265
4.352,0.08508510014769158
4.354,0.13120182207192205
4.356,0.15358912453919743
4.358,0.09865137562590814
4.36,0.12035996403932854
4.362,0.1371637418686123
4.364,0.12562032520127198
4.366,0.1206510190302178
4.368,0.11925657072960374
4.37,0.13222530769383606
4.372,0.1326022400709175
4.374,0.12773753729698126
4.376,0.11559814163612908
4.378,0.10482488721217392
4.38,0.16296444079944597
4.382,0.15537739884743593
4.384,0.1652989579514642
4.386,0.15350012476953453
4.388,0.16238725357538875
4.39,0.18039012819815908
4.392,0.1583583199652946
4.394,0.16778416572168525
4.396,0.12727634272219018
4.398,0.1483699951128141
4.4,0.13840252470725586
4.402,0.13043763984564083
4.404,0.1367502737708354
4.406,0.12177164402928796
4.408,0.12367665661249408
4.41,0.12350534881380362
4.412,0.11447593293416444
4.414,0.13280041782183266
4.416,0.10405781774830807
4.418,0.11475908696047112
4.42,0.12834476021663166
4.422,0.10196607145481072
4.424,0.11149498252931414
4.426,0.12390130782892567
4.428,0.08531830180057057
4.43,0.11204920399440094
4.432,0.09661766744832528
4.434,0.09902906436737152
4.436,0.052122763602406474
4.438,0.061527984086491724
4.44,0.07877075907462379
4.442,0.04904600997202111
4.444,0.07909656943993486
4.446,0.040244986773796586
4.448,0.039567933589151866
4.45,0.042472776100733016
4.452,-0.003717672098937124
4.454,0.019442817321552508
4.456,0.029157950568008767
4.458,0.026503637156142235
4.46,0.0038836641778944095
4.462,-0.004382290807277658
4.464,-0.007862843429773954
4.466,0.0032693106228043334
4.468,-0.02443400392018768
4.47,0.0014055666204232792
4.472,-0.030124209041139875
4.474,-0.02860565154062185
4.476,0.0031119272560296424
4.478,-0.005309108586369689
4.48,0.009225357944391256
4.482,0.052770896646885695
4.484,-0.001050999498844244
4.486,0.060286313319765195
4.488,0.11914304132524559
4.49,0.14024838411701412
4.492,0.17561975566856075
4.494,0.1759143258655969
4.496,0.2673697701750388
4.498,0.2707808282281661
4.5,0.33646227964801717
4.502,0.4508309683304854
4.5040000000000004,0.4399544250895683
4.506,0.48346305581631377
4.508,0.5529803705614023
4.51,0.6539097340240526
4.5120000000000005,0.6307383349543344
4.514,0.7112623891043721
4.516,0.7529196753144116
4.518,0.8026346654542802
4.5200000000000005,0.8624349192610713
4.522,0.8674815407462396
4.524,0.9444169817236051
4.526,0.9657906479137897
4.5280000000000005,1.0353268978359762
4.53,0.9994380434687538
4.532,1.0091558666109053
4.534,1.054627391973525
4.5360000000000005,1.0576155414830402
4.538,1.0399563203121247
4.54,1.0404657217581645
4.542,0.9983617578056501
4.5440000000000005,1.0468465302536034
4.546,0.9835286463871454
4.548,0.9314591736407536
4.55,0.894949516156304
4.5520000000000005,0.8531892891136742
4.554,0.8349019091280415
4.556,0.761389585649872
4.558,0.755941830442354
4.5600000000000005,0.6916805166513961
4.562,0.6885890220341091
4.564,0.5791267194237399
4.566,0.5449392329809288
4.5680000000000005,0.5164018171310183
4.57,0.4692148311971631
4.572,0.3791863697381274
4.574,0.369150174665435
4.5760000000000005,0.3153116286418714
4.578,0.27091600338328603
4.58,0.2149344587180305
4.582,0.19665645859748385
4.5840000000000005,0.1588603436785029
4.586,0.1667584991831667
4.588,0.11885389028897991
4.59,0.12049861719420323
4.5920000000000005,0.0710393949746367
4.594,0.05724112724727934
4.596,0.07581764616749029
4.598,0.04737767718443005
4.6000000000000005,0.04989162445975239
4.602,0.03763680456921038
4.604,0.031551321491793426
4.606,0.029923509541316538
4.6080000000000005,0.008693707917866729
4.61,0.010919909512813061
4.612,0.031569405502585156
4.614,0.04526291012187833
4.616,0.057797850001194744
4.618,0.030573659315131476
4.62,0.029144903399793663
4.622,0.02316338079084758
4.624,0.04557557542687793
4.626,0.025948127522952356
4.628,0.038479785290461255
4.63,0.06341925082709692
4.632,0.0343990086572517
4.634,-0.01475983195244161
4.636,0.05490962774986068
4.638,0.06234458380660397
4.64,0.092716198331755
4.642,0.05665698945128522
4.644,0.0460944982031543
4.646,0.051578318423148056
4.648,0.04935743604653826
4.65,0.02267224459609908
4.652,0.03956787760321067
4.654,0.04605398135316856
4.656,0.03298355603842384
4.658,0.009832642199905877
4.66,0.03110150560236067
4.662,0.03968712531103956
4.664,0.03579048173601045
4.666,0.03244611601863656
4.668,0.0151084995216959
4.67,0.05922736308110316
4.672,0.035515974463123025
4.674,0.04135940088228777
4.676,0.07096514291597542
4.678,0.014999492573835052
4.68,0.022426018945467974
4.682,0.06056937943472556
4.684,0.0453891780283497
4.686,0.021097124634571085
4.688,0.04116250923979517
4.69,0.04125885634439091
4.692,0.027534118528874066
4.694,0.05216220192167496
4.696,0.06476386349292422
4.698,0.050421356863655314
4.7,0.10015733424248478
4.702,0.05511457906554648
4.704,0.026545014331375613
4.706,0.004791044622840449
4.708,0.04639164256544421
4.71,0.036829457023661985
4.712,0.01348327601600511
4.714,0.04449500609451519
4.716,0.06347119699187947
4.718,0.08261045557895044
4.72,0.06527023009174977
4.722,0.06448050097915155
4.724,0.00753351952263032
4.726,0.041236206652011186
4.728,0.07855509958618109
4.73,0.03579734824157902
4.732,-0.0033404602158053085
4.734,0.04085376392313023
4.736,0.017797209382130343
4.738,0.04818040088209202
4.74,0.007181310342518901
4.742,0.05271882159609067
4.744,0.022252777270005596
4.746,0.03279340435788944
4.748,0.006718423351359264
4.75,0.017380450323666786
4.752,0.02382115674485611
4.7540000000000004,0.03673660480956052
4.756,0.02763044441191083
4.758,0.010162169719206707
4.76,0.030127974319945273
4.7620000000000005,-0.011595169790883044
4.764,0.0380635871653521
4.766,0.0011970878030928486
4.768,2.0705360877972673e-05
4.7700000000000005,0.029083294091068437
4.772,0.005367365133677818
4.774,0.0280828441001298
4.776,0.005861174310089402
4.7780000000000005,0.01864690407528572
4.78,0.008847209087402122
4.782,-0.002222995585874292
4.784,0.02468576116033171
4.7860000000000005,-0.014084088973614545
4.788,-0.01219017723399338
4.79,0.03323054421422896
4.792,-0.041611827226445484
4.7940000000000005,-0.0038017524778434786
4.796,-0.015959707422916202
4.798,-0.0012297396156652901
4.8,-0.04852771607102607
4.8020000000000005,-0.046775499547729985
4.804,-0.032205444397088126
4.806,-0.0171836523724748
4.808,0.0027275269226389176
4.8100000000000005,-0.050393284717823034
4.812,-0.017210639281791916
4.814,-0.0511927019623309
4.816,-0.0449258536884031
4.8180000000000005,-0.05222151936554606
4.82,-0.04147074044943074
4.822,-0.07423170007751285
4.824,-0.029925164555658426
4.8260000000000005,-0.059857951592362194
4.828,-0.05181797576181554
4.83,-0.07634184893365445
4.832,-0.05719040016245709
4.8340000000000005,-0.05446358125231926
4.836,-0.055727839975279955
4.838,-0.06529289511354786
4.84,-0.05759020934222442
4.8420000000000005,-0.06646936647824725
4.844,-0.06608055438254835
4.846,-0.09438983568272569
4.848,-0.08145702098530946
4.8500000000000005,-0.14893990223797277
4.852,-0.12871225413077017
4.854,-0.12636365159631932
4.856,-0.10875006635699128
4.8580000000000005,-0.08437984016837158
4.86,-0.11539813815606167
4.862,-0.13991821394832313
4.864,-0.14706277897365247
4.866,-0.13952837314307226
4.868,-0.13075154848331946
4.87,-0.1188689966617974
4.872,-0.13918845841530517
4.874,-0.18046125608414793
4.876,-0.1634182350897189
4.878,-0.10798330069131776
4.88,-0.17578573619396196
4.882,-0.13880659954436708
4.884,-0.12122709470411257
4.886,-0.12106955242880221
4.888,-0.11326045232204784
4.89,-0.15374344722399785
4.892,-0.1147933981290214
4.894,-0.12758529639825555
4.896,-0.16352253132090344
4.898,-0.10891828010370638
4.9,-0.13364674149357655
4.902,-0.14454911488175276
4.904,-0.13722527362052617
4.906,-0.1274473036512821
4.908,-0.13311518739664976
4.91,-0.13055534433269
4.912,-0.13641828341646542
4.914,-0.08492651371838458
4.916,-0.09642359907975546
4.918,-0.10463871300012509
4.92,-0.10600365032326042
4.922,-0.1031777678282772
4.924,-0.17009673978838968
4.926,-0.07987202860410698
4.928,-0.08961051976353465
4.93,-0.11872135357068223
4.932,-0.08788685051207855
4.934,-0.0660087333646843
4.936,-0.07527567070196488
4.938,-0.1271055425983479
4.94,-0.08751757443042772
4.942,-0.08307057960932115
4.944,-0.09229093326672612
4.946,-0.06684058625075869
4.948,-0.08090885258308278
4.95,-0.09332302155710863
4.952,-0.07077495727938282
4.954,-0.07502372065702743
4.956,-0.06908056691815859
4.958,-0.06225796066431556
4.96,-0.04939071133914481
4.962,-0.042257020146542396
4.964,-0.07855861368459131
4.966,-0.05536533936980803
4.968,-0.03737586389546119
4.97,-0.06540964423483207
4.972,-0.05141355303210631
4.974,-0.03804874918961084
4.976,-0.013492697498917954
4.978,-0.07065476363938669
4.98,-0.014942668187117585
4.982,-0.032919799829692196
4.984,-0.07118034322694568
4.986,-0.016184712654391774
4.988,-0.03834917834421128
4.99,-0.01756278539947141
4.992,-0.027797199363196023
4.994,-0.040198626698219095
4.996,0.004765473245570688
4.998,-0.0234794444414076
5.0,-0.0055594284596477035
5.002,0.0037494930495587317
5.0040000000000004,-0.002183071496331233
5.006,-0.03214772288530553
5.008,-0.01762426589630426
5.01,-0.02035110079617139
5.0120000000000005,-0.028143534115525323
5.014,-0.0017721406723344574
5.016,-0.043643433031626155
5.018,-0.004020358267917866
5.0200000000000005,-0.02956197334789502
5.022,-0.016570328154366876
5.024,-0.018232636452876677
5.026,-0.06259613277682735
5.0280000000000005,-0.00449603603399124
5.03,-0.027275234753890043
5.032,0.024644644159128443
5.034,-0.017157437782094602
5.0360000000000005,-0.0029164523189013384
5.038,-0.00639478987658395
5.04,-0.008650127874081752
5.042,-0.039312716539171164
5.0440000000000005,-0.009475741817391994
5.046,-0.025747262047425022
5.048,0.012260302473896466
5.05,0.022802400015432506
5.0520000000000005,-0.012508000827266875
5.054,-0.03947536344596109
5.056,0.001530755177556125
5.058,-0.0067822123943171025
5.0600000000000005,-0.024000838965036658
5.062,-0.015796223634668646
5.064,0.0027183838122609005
5.066,-0.03344103115753204
5.0680000000000005,-0.017033242032423908
5.07,0.023803934181122685
5.072,-0.038630919191786114
5.074,-0.009474341502182435
5.0760000000000005,-0.026036100496736367
5.078,0.0003251329778655374
5.08,-0.06326090725598328
5.082,0.00879198721414805
5.0840000000000005,-0.0057229182359333835
5.086,-0.019430055479626732
5.088,-0.03303960018221969
5.09,-0.02327947775654175
5.0920000000000005,0.010609269875139937
5.094,-0.022901219419265994
5.096,-0.02171133195575715
5.098,-0.03937274415665775
5.1000000000000005,-0.038109844110932226
5.102,-0.0036312810207551056
5.104,-0.011636450148600723
5.106,0.007781514580072954
5.1080000000000005,-0.013192394960540801
5.11,-0.041172613499124544
5.112,-0.03706204229461667
5.114,-0.027553457264861043
5.1160000000000005,-0.03102509462761259
5.118,-0.03828763301969747
5.12,0.02635566117915729
5.122,-0.03654516487542574
5.124,-0.02239636066399289
5.126,-0.02478495878047696
5.128,-0.016500941283075263
5.13,0.027751723761487865
5.132,-0.03337404663295757
5.134,-0.02915969778859141
5.136,-0.016042615369031222
5.138,-0.0026594989701309436
5.14,-0.04643372728956589
5.142,-0.0030504643986904536
5.144,-0.0014017569658777854
5.146,-0.015612691831093999
5.148,-0.00946792425650869
5.15,0.029103911205149137
5.152,-0.011562799427173311
5.154,-0.020770143509151177
5.156,-0.04349418209340043
5.158,-0.0024324666295680837
5.16,-0.037603493724473275
5.162,-0.016911101740307924
5.164,-0.026968438856973878
5.166,0.013279750604691555
5.168,0.02649916474194166
5.17,0.012468121474470737
5.172,-0.0022871521240316606
5.174,-0.01979982915013425
5.176,-0.026976587207190685
5.178,-0.031781040849651915
5.18,0.0020489177016112525
5.182,0.009143902452530031
5.184,0.0126314817254628
5.186,-0.008568982212441713
5.188,-0.007203324256941458
5.19,0.04876374456059992
5.192,0.04840761360664081
5.194,0.01565614765133095
5.196,0.00680582381104234
5.198,0.030172056944210594
5.2,0.030068385786901797
5.202,0.027255011225993494
5.204,0.0538287043123058
5.206,0.06551732132515056
5.208,0.067203685856426
5.21,0.03771871481928135
5.212,0.06357443475434896
5.214,0.031915887781789096
5.216,0.024952372942751377
5.218,0.03217022269963289
5.22,0.024384424830964112
5.222,0.0006195775901865902
5.224,0.06466388845873126
5.226,0.031545051354359976
5.228,0.05856031708279505
5.23,0.057821988896678826
5.232,0.09889120067310621
5.234,0.033880381419124084
5.236,0.11511904766216777
5.238,0.08649755947173017
5.24,0.08846563750434344
5.242,0.05411072941197899
5.244,0.025140300622343195
5.246,0.040775053709472084
5.248,0.04194469953945256
5.25,0.05617075329340553
5.252,-0.007295579181799849
5.2540000000000004,0.06981084752865829
5.256,0.059572664717821806
5.258,0.06858565641366138
5.26,0.07933351875028105
5.2620000000000005,0.06617187336643722
5.264,0.01683090678008889
5.266,0.020929086346687553
5.268,0.023103260966637423
5.2700000000000005,0.06361470740231026
5.272,0.042183246859995756
5.274,0.00022039898294411164
5.276,0.04647886108566298
5.2780000000000005,0.03696728962884488
5.28,-0.009303891776316929
5.282,0.007540791790021241
5.284,0.04583843339525616
5.2860000000000005,0.00016630670409936016
5.288,0.01027833891859016
5.29,0.01778116979947212
5.292,-0.021422771956412227
5.2940000000000005,-0.019441353209668485
5.296,-0.023885863583943793
5.298,-0.017192779620568234
5.3,-0.03048944611605805
5.3020000000000005,-0.08276761279417037
5.304,-0.05395495293663693
5.306,-0.07878012298602904
5.308,-0.04516481629367469
5.3100000000000005,-0.05807806782088048
5.312,-0.060495186175978675
5.314,-0.07677447908517848
5.316,-0.07690793942124652
5.3180000000000005,-0.12410264279608618
5.32,-0.07443162107695477
5.322,-0.11523041288182122
5.324,-0.11941315959530953
5.3260000000000005,-0.09777036053329871
5.328,-0.12368367721915281
5.33,-0.10853204979429772
5.332,-0.13424170371342797
5.3340000000000005,-0.11591463235358918
5.336,-0.08844194452631723
5.338,-0.1241178732983349
5.34,-0.0723660143591633
5.3420000000000005,-0.0701784486088732
5.344,-0.006753914771164993
5.346,0.033047638663448245
5.348,0.04394072418770537
5.3500000000000005,0.07847141913193378
5.352,0.11772653781850283
5.354,0.18618264397536663
5.356,0.22756890763466803
5.3580000000000005,0.24762061916044142
5.36,0.32441759315627716
5.362,0.3739587137421095
5.364,0.43420953631803544
5.3660000000000005,0.44468383977255393
5.368,0.5409188550429442
5.37,0.6317891655511108
5.372,0.654142880370282
5.3740000000000006,0.6657913826752422
5.376,0.7357626091400248
5.378,0.757315385664012
5.38,0.8304435005451111
5.382,0.8306768679062302
5.384,0.8697498542795058
5.386,0.8710393490741222
5.388,0.8887859449359223
5.39,0.932909137374463
5.392,0.9456959444470867
5.394,0.9426963135707316
5.396,0.9624892864901504
5.398,0.8786386753321587
5.4,0.9124889194120921
5.402,0.8699162524689589
5.404,0.8829935984727453
5.406,0.816401855615285
5.408,0.8461321891589015
5.41,0.7743790431106561
5.412,0.7248798091293367
5.414,0.6659487400843596
5.416,0.5935165115651158
5.418,0.5872265716033265
5.42,0.5213871563259918
5.422,0.4411520051219414
5.424,0.4153022752732951
5.426,0.3603537000375119
5.428,0.34309365851662715
5.43,0.29048893406028164
5.432,0.225466628828108
5.434,0.1852474217905741
5.436,0.15695077934442042
5.438,0.1364449421033404
5.44,0.10494901529795128
5.442,0.0712793586845397
5.444,0.06968946231245607
5.446,0.019633983469831695
5.448,0.03959721428840646
5.45,-0.034270123438782565
5.452,-0.01918533056445465
5.454,-0.01321127131392958
5.456,-0.03732756359788507
5.458,-0.0813270248785977
5.46,-0.1067067480229172
5.462,-0.061602449509792344
5.464,-0.07948046972344654
5.466,-0.06839911949414736
5.468,-0.08333000529659533
5.47,-0.07327082867766121
5.472,-0.0929501296828627
5.474,-0.06818883994464073
5.476,-0.0599147667240723
5.478,-0.061609516820686466
5.48,-0.06456886330653318
5.482,-0.0830014461803182
5.484,-0.05863136440200809
5.486,-0.06756295792679307
5.488,-0.060802568433813445
5.49,-0.06023664621127383
5.492,-0.08503782592683608
5.494,-0.017823798899782525
5.496,-0.0556167491094799
5.498,-0.05234884945402253
5.5,-0.01876296289796709
5.502,-0.06733189559337885
5.5040000000000004,-0.0857245616496932
5.506,-0.06446261567913569
5.508,-0.048304810643646036
5.51,-0.04526510334138149
5.5120000000000005,-0.09022627795071322
5.514,-0.06128033038741452
5.516,-0.06554513536621182
5.518,-0.05275347640541183
5.5200000000000005,-0.0637596535890946
5.522,-0.02049309328343002
5.524,-0.03679825398328682
5.526,-0.07288437925989485
5.5280000000000005,-0.009144769509323854
5.53,-0.029135202690139514
5.532,-0.034289966774453756
5.534,-0.042270864692440846
5.5360000000000005,-0.03875988766273208
5.538,-0.012804386375919989
5.54,-0.05564320882447132
5.542,-0.05196543793031236
5.5440000000000005,-0.05301397130726485
5.546,-0.03706837407897693
5.548,-0.0654650293085484
5.55,-0.0630325456263931
5.5520000000000005,-0.04943449718483137
5.554,-0.03497247211302268
5.556,-0.09148230380154652
5.558,-0.06252505437707934
5.5600000000000005,-0.029544581146717493
5.562,-0.058161867502860294
5.564,-0.04309709720742649
5.566,-0.053779951649508766
5.5680000000000005,-0.039225974305929674
5.57,-0.0674573272043689
5.572,-0.04831211790474415
5.574,-0.0648450081900073
5.5760000000000005,-0.06605994391733709
5.578,-0.03869018928513609
5.58,-0.048201589779271026
5.582,-0.07234364810567584
5.5840000000000005,-0.003401485412682484
5.586,-0.029861710618965198
5.588,-0.06469962378381844
5.59,-0.09223780705700443
5.5920000000000005,-0.04988898678068408
5.594,-0.07240455585251411
5.596,-0.0751593657439413
5.598,-0.07396421245064055
5.6000000000000005,-0.06902282820392534
5.602,-0.07313155785148753
5.604,-0.078285208274486
5.606,-0.06962389907162811
5.6080000000000005,-0.05331715017143823
5.61,-0.06710488280391329
5.612,-0.033820128138499356
5.614,-0.04737974948978021
5.6160000000000005,-0.07534496637815019
5.618,-0.058661718041177306
5.62,-0.07644374921007985
5.622,-0.0523426843838811
5.6240000000000006,-0.05426733888299974
5.626,-0.07712672326618195
5.628,-0.04170284798158387
5.63,-0.07331887634384752
5.632,-0.0683773216903964
5.634,-0.09605804630503714
5.636,-0.09319923201489805
5.638,-0.06742539408254374
5.64,-0.05118912407304402
5.642,-0.10351443541217073
5.644,-0.09979623649394948
5.646,-0.06312773558109334
5.648,-0.08577576122379153
5.65,-0.09559234196142376
5.652,-0.058515892147779525
5.654,-0.07623955876115682
5.656,-0.08864553676976893
5.658,-0.11008096243248293
5.66,-0.10940559919235344
5.662,-0.10594217565468037
5.664,-0.09460654181132418
5.666,-0.09088815352891907
5.668,-0.08037296110372855
5.67,-0.12100918855810497
5.672,-0.09555284905560502
5.674,-0.07933245343636096
5.676,-0.10838045584272629
5.678,-0.12268216084897723
5.68,-0.13252778047005254
5.682,-0.11326666247734613
5.684,-0.1061134617033569
5.686,-0.1147077858829339
5.688,-0.11484378445799248
5.69,-0.13846762709675742
5.692,-0.14990839754950158
5.694,-0.1721851049625402
5.696,-0.12039170732031909
5.698,-0.16669748557520647
5.7,-0.10903085360796994
5.702,-0.17660023298020627
5.704,-0.16213365964728005
5.706,-0.19842892084388847
5.708,-0.18798895286780937
5.71,-0.19298736095469046
5.712,-0.18906877063888805
5.714,-0.17247336993866913
5.716,-0.22467070561322386
5.718,-0.19717189571436913
5.72,-0.163932331180535
5.722,-0.1947270425876497
5.724,-0.21664045669638193
5.726,-0.18707862702821695
5.728,-0.21193642038514804
5.73,-0.16832799761720546
5.732,-0.11267791626938992
5.734,-0.17907364618205251
5.736,-0.18671451046743148
5.738,-0.1688832234582076
5.74,-0.14759600821605673
5.742,-0.2091989889696767
5.744,-0.17606932303625394
5.746,-0.1840569265292383
5.748,-0.20655708351552682
5.75,-0.1727114517206348
5.752,-0.17711495823927614
5.7540000000000004,-0.1758148347521305
5.756,-0.19598022846558183
5.758,-0.1663400894883798
5.76,-0.17755992348708866
5.7620000000000005,-0.14285762399316745
5.764,-0.18177881329254902
5.766,-0.1407987660651172
5.768,-0.19497707225542793
5.7700000000000005,-0.16418257323694674
5.772,-0.1626052762441646
5.774,-0.15725716318747565
5.776,-0.12525852543095112
5.7780000000000005,-0.17614408561141998
5.78,-0.14630129496473707
5.782,-0.1793095018602848
5.784,-0.14494699247905138
5.7860000000000005,-0.11857573326292957
5.788,-0.13279281331853926
5.79,-0.1353697535482268
5.792,-0.11302983913347453
5.7940000000000005,-0.1667021075603795
5.796,-0.10411242565993369
5.798,-0.145257836097784
5.8,-0.10602615924759068
5.8020000000000005,-0.10942780677866873
5.804,-0.12481263073717697
5.806,-0.10982825842077598
5.808,-0.1249272400424208
5.8100000000000005,-0.06132044233625293
5.812,-0.09158415190687964
5.814,-0.0741159817412837
5.816,-0.08034406723367354
5.8180000000000005,-0.10705431024451986
5.82,-0.08531455431026966
5.822,-0.0568889356794179
5.824,-0.11485813942666384
5.8260000000000005,-0.09543467336691303
5.828,-0.07036044546117816
5.83,-0.03524829456010311
5.832,-0.07860093312016683
5.8340000000000005,-0.07497691723992107
5.836,-0.07245655919226127
5.838,-0.07069577055200019
5.84,-0.05423556133875694
5.8420000000000005,-0.05650140292634517
5.844,-0.03769673481979449
5.846,-0.054437135366089635
5.848,-0.06395458803264674
5.8500000000000005,-0.0492026627882621
5.852,-0.024926222536278526
5.854,-0.06557913442846798
5.856,-0.01817496326015637
5.8580000000000005,-0.04549831170976712
5.86,-0.0646657216824801
5.862,-0.02393642033071665
5.864,-0.02376199698088312
5.8660000000000005,-0.039041560718195326
5.868,-0.04281421806948384
5.87,-0.0156439662654038
5.872,-0.07056842216586758
5.8740000000000006,-0.016731129397014752
5.876,-0.022687909421904358
5.878,-0.019196772125829327
5.88,-0.034093768485707825
5.882000000000001,-0.011839254630857296
5.884,0.024375207485723582
5.886,-0.019241282543675416
5.888,-0.013396279169918604
5.89,-0.02548255902054992
5.892,-0.03736753749621798
5.894,-0.011274463770606886
5.896,0.01785582285195683
5.898,-0.03201396107578353
5.9,-0.020136451829455407
5.902,-0.010328408011483391
5.904,-0.012660704924716978
5.906,-0.02913431864711877
5.908,0.00765224216472036
5.91,-0.009257028773828375
5.912,-0.026575878743746267
5.914,-0.006773967000663197
5.916,-0.022011433556326204
5.918,-0.006119010853957352
5.92,-0.03932721974796521
5.922,-0.03523008493061254
5.924,0.0013696329621415365
5.926,-0.011942257508444474
5.928,-0.00045340637341716313
5.93,-0.04212702800424716
5.932,-0.016103904434999056
5.934,-0.004732694119097172
5.936,0.004481944026033352
5.938,0.0465358993941619
5.94,0.013046609427978332
5.942,-0.03468920087950881
5.944,-0.033830588374092585
5.946,-0.0060428391597110755
5.948,-0.00385706833225464
5.95,-0.017419629062457486
5.952,-0.03983709982376301
5.954,-0.005803563175058224
5.956,-0.022399734698924062
5.958,0.011816100544899925
5.96,0.008452998683655335
5.962,-0.015103420554414939
5.964,-0.03215006664985096
5.966,-0.027927739319456697
5.968,-0.010336607786105
5.97,-0.017188800796300176
5.972,-0.021600840477416276
5.974,-0.03130972889060224
5.976,-0.003679437375304464
5.978,-0.0006371653818686013
5.98,0.014830048837821444
5.982,-0.034608209557460176
5.984,0.010885386860691381
5.986,0.017353328771819714
5.988,-0.0411976607928134
5.99,0.029528942687943035
5.992,-0.000772314381840349
5.994,-0.01915342441320906
5.996,0.02906530100720236
5.998,-0.004068663174389388
6.0,-0.009844178940481153
6.002,0.021373314452572352
6.0040000000000004,0.005283368748512319
6.006,0.011937774621685845
6.008,0.007785775334983108
6.01,-0.0010330428421534065
6.0120000000000005,0.03598656511676757
6.014,-0.0050027388297551375
6.016,-0.006369954470598715
6.018,0.028705650201008147
6.0200000000000005,0.03732069252776323
6.022,-0.016246694413718572
6.024,0.013975394022234945
6.026,0.019815259124828923
6.0280000000000005,-0.0273943657887694
6.03,0.034732740721613406
6.032,0.03332498701776858
6.034,0.00618894539375418
6.0360000000000005,0.02096526309127857
6.038,0.02406285996729536
6.04,0.02140473892678715
6.042,0.047882977616558166
6.0440000000000005,0.03600780644960866
6.046,0.026500196001658816
6.048,-0.009813049008496992
6.05,0.0316820972326909
6.0520000000000005,0.052078416695751056
6.054,0.06898108033690459
6.056,0.041995984723467925
6.058,0.08724064679676244
6.0600000000000005,0.07883488312812306
6.062,0.09529075973158259
6.064,0.0821670331904835
6.066,0.06884682125469833
6.0680000000000005,0.08806390620153703
6.07,0.09706497305104417
6.072,0.09201343101644638
6.074,0.10928742207971202
6.0760000000000005,0.07657956845952249
6.078,0.11077511278209845
6.08,0.11349514237526581
6.082,0.07479563019134437
6.0840000000000005,0.14445853946814508
6.086,0.08339469287240184
6.088,0.10402206855399891
6.09,0.10362630376197172
6.0920000000000005,0.12872133821149775
6.094,0.10673009422912258
6.096,0.12693720330173874
6.098,0.11695670852825099
6.1000000000000005,0.09297630477868163
6.102,0.16695547071127814
6.104,0.10004131395306459
6.106,0.1153989672841349
6.1080000000000005,0.106185605129552
6.11,0.1113653280975387
6.112,0.11937076353589601
6.114,0.12688146971113137
6.1160000000000005,0.10477455269885116
6.118,0.10595833428509982
6.12,0.09703717297279241
6.122,0.11147017044486941
6.1240000000000006,0.05663571571162064
6.126,0.11692229182804312
6.128,0.06417528592327974
6.13,0.08240669795972833
6.132000000000001,0.08159317605074293
6.134,0.10318093270462977
6.136,0.09305086525776143
6.138,0.076018034839649
6.140000000000001,0.05452348639158166
6.142,0.05012142591952792
6.144,0.03692405812396106
6.146,0.0671688993707118
6.148,0.045326248473343746
6.15,0.06101288951818549
6.152,0.03444427481471092
6.154,0.06005378310639381
6.156,0.03861162891022827
6.158,0.018745214385168022
6.16,0.043982298869056864
6.162,-0.018007949171815543
6.164,0.020887319213123597
6.166,-0.03916560380389858
6.168,-0.017841575120029433
6.17,-0.030195419492556056
6.172,-0.048056514818669085
6.174,-0.02386790755185414
6.176,-0.03509065247495131
6.178,-0.030718452016629226
6.18,-0.03876712730402077
6.182,-0.06338163853136874
6.184,-0.027833250264702077
6.186,-0.04317148018854907
6.188,-0.0030260179730711295
6.19,-0.025524362335180246
6.192,-0.04256939586639388
6.194,0.02749523767544658
6.196,-0.018181233137390472
6.198,0.02611375645824278
6.2,0.05439709204372815
6.202,0.03266835100851785
6.204,0.11907970599664429
6.206,0.16389924894258817
6.208,0.1407376628929647
6.21,0.19473987560540917
6.212,0.24468166503702976
6.214,0.33557612039796614
6.216,0.3842681062588955
6.218,0.4324570962838652
6.22,0.469781111353472
6.222,0.512145939057881
6.224,0.5267399625530418
6.226,0.6169270779162954
6.228,0.6824427515396805
6.23,0.7612544494396211
6.232,0.760445659068753
6.234,0.8396218587820654
6.236,0.8764856576900482
6.238,0.9029461592370266
6.24,0.9249636715130389
6.242,0.9475494894072071
6.244,0.9764017246252017
6.246,1.0080482716062324
6.248,1.0077137299366568
6.25,0.998971219626754
6.252,0.9726433012747236
6.2540000000000004,1.0074536138852515
6.256,0.9963841724919213
6.258,0.9840492281685012
6.26,0.965126616630484
6.2620000000000005,0.924415259429224
6.264,0.9001275279045262
6.266,0.8748183529129527
6.268,0.8064036604806246
6.2700000000000005,0.7443163203275178
6.272,0.7469269560242922
6.274,0.6972527268482278
6.276,0.6150448614673735
6.2780000000000005,0.564646249276255
6.28,0.5246990755281805
6.282,0.5372137646129568
6.284,0.4671121228693481
6.2860000000000005,0.42696158979283827
6.288,0.3662805223581712
6.29,0.346874402490025
6.292,0.31005308817697275
6.2940000000000005,0.21388160055968017
6.296,0.20873992490193793
6.298,0.18187188438677673
6.3,0.1900298762439392
6.3020000000000005,0.14864276007640465
6.304,0.12601748129018175
6.306,0.08360402546425011
6.308,0.04529914993947296
6.3100000000000005,0.039181494171144256
6.312,0.03246358905408144
6.314,0.0708789785930567
6.316,0.03430168519351109
6.3180000000000005,0.02250090686832893
6.32,0.03502699199994955
6.322,0.004963359917040874
6.324,0.027161464179970965
6.3260000000000005,0.04593914718038157
6.328,0.030371578234819428
6.33,0.033276530822617625
6.332,0.014266300487013578
6.3340000000000005,0.0052826354358364615
6.336,0.04904778010878673
6.338,0.03239894740618177
6.34,0.05377972223123646
6.3420000000000005,0.022038003463012816
6.344,0.030450155675899832
6.346,0.049844542886154634
6.348,0.05380271115655183
6.3500000000000005,0.039309127639845884
6.352,0.0646243619051353
6.354,0.0643589646737201
6.356,0.039912001655490484
6.3580000000000005,0.03816898881930146
6.36,0.036408499733316745
6.362,0.02688874348144921
6.364,0.022445587335287287
6.3660000000000005,0.028712611706679506
6.368,0.03878869412169782
6.37,0.03954300363483543
6.372,0.026780276455909198
6.3740000000000006,-0.0023276529987141335
6.376,0.04784351514990528
6.378,0.04238314264670369
6.38,0.048822902622454915
6.382000000000001,0.04305754041841263
6.384,0.02807973004763595
6.386,0.030068009299262295
6.388,0.025493572565847694
6.390000000000001,0.023948578417469946
6.392,0.030098722589369284
6.394,0.046075435651728086
6.396,0.030778033353059276
6.398000000000001,0.05418630444545847
6.4,0.06785134493949366
6.402,0.03187406074308621
6.404,-0.0071119204051612
6.406,0.04714313168343115
6.408,0.037153606471567104
6.41,0.017906801652263757
6.412,0.10346094578519972
6.414,0.0585932676506176
6.416,0.002039625847771814
6.418,0.004711230447498682
6.42,0.02901065827306691
6.422,0.04636697252763664
6.424,0.10070257774838992
6.426,0.033914255712977445
6.428,0.0183456165519599
6.43,0.024393280357440626
6.432,0.03230233764737065
6.434,0.03284237029154115
6.436,0.05669659148483558
6.438,0.040912240499009454
6.44,0.07132983279069863
6.442,0.045466747699243644
6.444,0.07232040707523242
6.446,0.010274856138985117
6.448,0.01714644545553251
6.45,0.03849575958952134
6.452,0.038546002801398756
6.454,0.023477606440057853
6.456,0.08210824519907542
6.458,0.04602580929244917
6.46,0.08274838428248531
6.462,0.04217713504442306
6.464,0.02150482069247435
6.466,0.0581303860720785
6.468,0.07689074252298828
6.47,0.0512906606308952
6.472,0.027369818663500092
6.474,-0.001926734504750307
6.476,0.02199749358390706
6.478,-0.003942829035583389
6.48,0.030410101171496957
6.482,0.025088027235720976
6.484,0.04042545811279291
6.486,0.02350914566126543
6.488,0.03403231800771687
6.49,0.03020842504353678
6.492,0.02110069088023015
6.494,0.014372350937127704
6.496,0.03437330957530743
6.498,0.0015610632417705113
6.5,0.012461929014924676
6.502,0.045325895336157815
6.5040000000000004,0.0072515059165400575
6.506,-0.004378648438917734
6.508,0.030093966535295814
6.51,-0.006161513188384364
6.5120000000000005,0.008445476267805715
6.514,0.0025530297630490875
6.516,0.015706233960255313
6.518,0.01472067275335951
6.5200000000000005,0.017824369259771003
6.522,0.006752789956436661
6.524,-0.014688850110295908
6.526,-0.0075571344028640755
6.5280000000000005,-0.00847152567286727
6.53,-0.038483010112267874
6.532,-0.06298053542220627
6.534,-0.029475687809554334
6.5360000000000005,-0.028254322922262633
6.538,-0.044806918178201253
6.54,-0.014645534799027443
6.542,-0.040071973384159736
6.5440000000000005,-0.06987404698730638
6.546,-0.05367923223593601
6.548,-0.08956644735125643
6.55,-0.060409202977255154
6.5520000000000005,-0.05305443324392715
6.554,-0.042751747780027105
6.556,-0.049422040166677755
6.558,-0.02544101420122573
6.5600000000000005,-0.059950144568276444
6.562,-0.07565866602273602
6.564,-0.08579105360408722
6.566,-0.07878467444436713
6.5680000000000005,-0.047094884408901694
6.57,-0.04808189655068637
6.572,-0.08993595980385707
6.574,-0.04919796589624163
6.5760000000000005,-0.07537728713282554
6.578,-0.1038191250051991
6.58,-0.0853137534857969
6.582,-0.07809664313855678
6.5840000000000005,-0.10615567532981446
6.586,-0.1026119043431293
6.588,-0.11632312073070324
6.59,-0.10306243297539124
6.5920000000000005,-0.13958772967746744
6.594,-0.09665671215535815
6.596,-0.1355987859136127
6.598,-0.1420360680506884
6.6000000000000005,-0.10322445678294906
6.602,-0.08036392993013106
6.604,-0.0827328608520623
6.606,-0.12967852949334677
6.6080000000000005,-0.1265510519791167
6.61,-0.1271850948799366
6.612,-0.12756174826863262
6.614,-0.13180582050134887
6.6160000000000005,-0.1475797549666808
6.618,-0.1101779897566393
6.62,-0.12312066383631859
6.622,-0.09544801754072937
6.6240000000000006,-0.07951986071190456
6.626,-0.08758580584938551
6.628,-0.07492084869617605
6.63,-0.09094499114890685
6.632000000000001,-0.10601677949373955
6.634,-0.07323367019613641
6.636,-0.08617906505393721
6.638,-0.09033209397398824
6.640000000000001,-0.08553649126631012
6.642,-0.047393556341310664
6.644,-0.07372526807220152
6.646,-0.05109802231980784
6.648000000000001,-0.04010647651303609
6.65,-0.07801204890852806
6.652,-0.08210389178759395
6.654,-0.018948380741692
6.656000000000001,-0.07956266884626914
6.658,-0.0453434481036256
6.66,-0.05675363039295838
6.662,-0.043791539978827954
6.664,-0.04336448283037434
6.666,-0.020692176767267548
6.668,-0.017349632327499455
6.67,-0.033776386877638065
6.672,-0.02426063607184563
6.674,-0.009102814603990109
6.676,-0.024883221898740072
6.678,-0.01734134161660597
6.68,-0.007623285991105254
6.682,-0.015812519451210864
6.684,0.00716922620812982
6.686,-0.03911369624022435
6.688,0.005686431439316068
6.69,0.016818066705966354
6.692,-0.02630361762116434
6.694,-0.011115957715659902
6.696,0.022501928498029282
6.698,-0.0029181515551090914
6.7,0.021898387094515782
6.702,0.037820501241147525
6.704,0.022069298737382084
6.706,0.020826123557390473
6.708,0.028212947543933997
6.71,0.018417960754992913
6.712,0.004224297530895954
6.714,0.043063332314180955
6.716,0.05330805954218593
6.718,-0.009631502499046197
6.72,0.058635440731101204
6.722,-0.0021232539911444914
6.724,0.039840248177745057
6.726,0.01666878263032818
6.728,0.03075467900080894
6.73,0.06258762039452244
6.732,0.0018991450153794266
6.734,-0.003113721609185355
6.736,0.01585977507462944
6.738,0.04712381724185452
6.74,0.06093914676806489
6.742,-0.0016882732698539956
6.744,-0.02107686917830197
6.746,-0.0014519717737787024
6.748,0.01795511355869535
6.75,0.02761924870136242
6.752,-0.011476260757081419
6.7540000000000004,0.023242780188719128
6.756,0.0630732289062772
6.758,0.03243682066201721
6.76,0.04075267657023331
6.7620000000000005,0.017409788076511414
6.764,0.007839083663473731
6.766,0.035557687149064564
6.768,0.04730987962527961
6.7700000000000005,0.01860139287468458
6.772,0.05260811323437287
6.774,0.0244852628584118
6.776,0.024276609707629862
6.7780000000000005,0.011915722355168747
6.78,0.042073996112062854
6.782,0.042205180934124474
6.784,0.0223205304467285
6.7860000000000005,0.024271109313595166
6.788,0.03181782287746994
6.79,0.018994648829309655
6.792,0.04809888785141377
6.7940000000000005,0.044373997959741694
6.796,0.012813306398471043
6.798,0.028988282136127332
6.8,0.05310426039719309
6.8020000000000005,0.04224941618911105
6.804,0.03893847338220947
6.806,0.01795460721876982
6.808,0.06201025049954054
6.8100000000000005,0.04914573467295812
6.812,0.061483311542377427
6.814,0.01640497188562224
6.816,0.047399908086818744
6.8180000000000005,-0.02055096935941099
6.82,-0.016285581152521534
6.822,0.04441804658533497
6.824,0.049361562087203596
6.8260000000000005,0.06522587127053012
6.828,0.011357719997988744
6.83,0.029098825166115023
6.832,0.024415476797434464
6.8340000000000005,0.027314735518396187
6.836,0.009125310366515187
6.838,-0.04145674139896513
6.84,0.010160507823399641
6.8420000000000005,0.011161007172063694
6.844,0.03698466592490541
6.846,0.0351779039106308
6.848,0.010596634351603209
6.8500000000000005,0.03289834085313574
6.852,-0.012275704776966125
6.854,0.0656253409945503
6.856,0.02367721536464129
6.8580000000000005,0.026341664995049665
6.86,0.011845721245982932
6.862,0.005360550820671034
6.864,0.02632877853588582
6.8660000000000005,-0.0020032292340828946
6.868,0.006532895237799145
6.87,0.015286370484271087
6.872,0.011494690727120373
6.8740000000000006,-0.008269494779693694
6.876,0.005541171834254283
6.878,-0.02282674665368364
6.88,0.0001872689092983909
6.882000000000001,0.07956747170600367
6.884,0.07225613979662816
6.886,0.026474213252580953
6.888,0.042699948818164774
6.890000000000001,0.03040227446223636
6.892,0.05532157277974942
6.894,0.05291053985675705
6.896,-0.0026104757673795255
6.898000000000001,0.029242831508817707
6.9,0.07045602822384078
6.902,0.06700585809095146
6.904,0.04481934003820659
6.906000000000001,0.062488686013582755
6.908,0.04875238099374425
6.91,0.013792879633071534
6.912,0.09808797384170193
6.914,0.0609869178134837
6.916,0.029395987179637432
6.918,0.05579803107368666
6.92,0.04872956731276828
6.922,0.08895844198896737
6.924,0.07524359171383196
6.926,0.07486679339254716
6.928,0.06725651160958611
6.93,0.09576488915421398
6.932,0.06077580002706729
6.934,0.08438769173921293
6.936,0.11806915205191007
6.938,0.08041378403959877
6.94,0.1262224018967281
6.942,0.09957695742788443
6.944,0.09872497167503559
6.946,0.08663770711300658
6.948,0.11117135761881523
6.95,0.07785098841241797
6.952,0.11198881754247986
6.954,0.13618609936102968
6.956,0.10594096814413768
6.958,0.0872531616231929
6.96,0.08817979881262382
6.962,0.09940446921432476
6.964,0.11013001912310139
6.966,0.13939617242301539
6.968,0.07662302282480675
6.97,0.08102854727884702
6.972,0.11727916553399541
6.974,0.0911509866116491
6.976,0.0720773947687276
6.978,0.09582826573855939
6.98,0.09019935545359567
6.982,0.10848486678282722
6.984,0.059602292184413486
6.986,0.08212569024897455
6.988,0.06466857908200516
6.99,0.07080115510543508
6.992,0.05766556255326566
6.994,0.05739242953466052
6.996,0.05115751986957725
6.998,0.052038142982855716
7.0,0.05451743237768149
7.002,0.05060191628236257
7.0040000000000004,0.0474706492928037
7.006,0.028694882080688364
7.008,0.021389655049336084
7.01,0.03595111931803512
7.0120000000000005,-0.0011700802146189914
7.014,0.002275149134904895
7.016,0.024946437112198676
7.018,-0.030025390848411257
7.0200000000000005,-0.028166154006577213
7.022,-0.02632429748991702
7.024,-0.0323348893238077
7.026,-0.013333718629102424
7.0280000000000005,-0.05400135139142517
7.03,-0.06367712037567345
7.032,-0.03510385020988706
7.034,-0.06494331699569394
7.0360000000000005,-0.09433175587223618
7.038,-0.08417070558119988
7.04,-0.10257225287888666
7.042,-0.09261066343028092
7.0440000000000005,-0.10164591870912701
7.046,-0.04773886609256732
7.048,-0.08648423541119227
7.05,-0.06096204439998268
7.0520000000000005,-0.011073811092979002
7.054,-0.05089860489783875
7.056,0.018771792987279167
7.058,0.01684740677883052
7.0600000000000005,0.0075092731535708265
7.062,0.10386729957840588
7.064,0.10628537639597416
7.066,0.17178019750860424
7.0680000000000005,0.20341509799825178
7.07,0.2427156977454837
7.072,0.28525254139135064
7.074,0.30346109645147035
7.0760000000000005,0.36909809183171904
7.078,0.4376008331265615
7.08,0.46489332496498653
7.082,0.5413916654040883
7.0840000000000005,0.5629198091764501
7.086,0.6244856218360012
7.088,0.708418677215082
7.09,0.7324319270227493
7.0920000000000005,0.8104395036959035
7.094,0.805599584743544
7.096,0.8805033498087632
7.098,0.8698327745124135
7.1000000000000005,0.8965770063322263
7.102,0.9446088864289123
7.104,0.938075036905029
7.106,0.9558930647962673
7.1080000000000005,0.9764684148286862
7.11,0.947157312853167
7.112,0.9828568282107489
7.114,0.9572599124143837
7.1160000000000005,0.923608367649575
7.118,0.8893954926525326
7.12,0.8637711611449664
7.122,0.8576796730507241
7.1240000000000006,0.7793766820680487
7.126,0.7257320319653771
7.128,0.671866368305761
7.13,0.7225380458597987
7.132000000000001,0.5770647917610705
7.134,0.5470960626049381
7.136,0.5415511912610086
7.138,0.4633592813731789
7.140000000000001,0.40608880768909955
7.142,0.3573403197496204
7.144,0.3197511219613191
7.146,0.2989921417816779
7.148000000000001,0.2228773247575423
7.15,0.2571778126061176
7.152,0.2199928574540475
7.154,0.14281479624411852
7.156000000000001,0.12169858343932023
7.158,0.08555221327065422
7.16,0.05746036496447257
7.162,0.05183568172619046
7.164000000000001,-0.01899389910838461
7.166,-0.010312190858545477
7.168,-0.006912690745480879
7.17,-0.01291387141046134
7.172,-0.045647782292484604
7.174,-0.020276632179379417
7.176,-0.03394544509458791
7.178,-0.039778078613947145
7.18,-0.04895389700244728
7.182,-0.00987218476582271
7.184,-0.07601947620232626
7.186,-0.03440582038440999
7.188,-0.023922570296675057
7.19,-0.0329335515096494
7.192,-0.04101234528497239
7.194,-0.03077965390736206
7.196,-0.06489748937151717
7.198,-0.002002191748716532
7.2,-0.0032018816441140557
7.202,-0.05389715102452595
7.204,-0.05371293951820601
7.206,-0.0452442599582774
7.208,-0.038813008430562575
7.21,-0.07093599486602564
7.212,-0.05799758596334911
7.214,-0.056933370532337435
7.216,-0.03904855688081953
7.218,-0.03809375018295508
7.22,-0.029827064149559022
7.222,-0.03861528025081519
7.224,-0.0744002157384674
7.226,-0.027435801265574388
7.228,-0.027118139239871764
7.23,-0.016976245314542827
7.232,-0.004524434712829457
7.234,-0.03423552316998467
7.236,-0.06702852808347658
7.238,-0.0472207359694908
7.24,-0.03421946457564892
7.242,-0.030543034015174574
7.244,-0.020545319223694142
7.246,-0.02742701948653897
7.248,-0.02932929500505236
7.25,-0.007879007409435076
7.252,-0.01590706098143259
7.2540000000000004,-0.07446655864883751
7.256,-0.04867314716309193
7.258,-0.06719629523587568
7.26,-0.04918005745316381
7.2620000000000005,0.0024226258762935424
7.264,-0.048861727948059694
7.266,-0.008646915049240516
7.268,-0.043423991959938776
7.2700000000000005,-0.040253086893183576
7.272,-0.0372325936741772
7.274,-0.058099839562774265
7.276,-0.0319206083605065
7.2780000000000005,-0.059629488481791476
7.28,-0.04237254774287345
7.282,-0.03514175023161356
7.284,-0.05862860362728064
7.2860000000000005,-0.03084055150862097
7.288,-0.0697901727497917
7.29,-0.05904955406755438
7.292,-0.06081122591334934
7.2940000000000005,-0.036896780562337576
7.296,-0.05742524994280853
7.298,-0.04936103927909164
7.3,-0.03255751857233654
7.3020000000000005,-0.010127865554008096
7.304,-0.06421474437237312
7.306,-0.04310416062496607
7.308,-0.025277062024245255
7.3100000000000005,-0.03602916451038303
7.312,-0.07629626894075321
7.314,-0.051534485869932437
7.316,-0.08110875394867219
7.3180000000000005,-0.04241613792313395
7.32,-0.05827131537997658
7.322,-0.036688507418096095
7.324,-0.02614961467309554
7.3260000000000005,-0.029217879223159927
7.328,-0.04134198212006506
7.33,-0.033984996738357566
7.332,-0.05338537836850962
7.3340000000000005,-0.07502554990796134
7.336,-0.052632344562733274
7.338,-0.06830615437411829
7.34,-0.05560815495715769
7.3420000000000005,-0.06091554966526512
7.344,-0.0548904644429629
7.346,-0.10202777444622158
7.348,-0.04892296480246669
7.3500000000000005,-0.08572827519613743
7.352,-0.04991497439411999
7.354,-0.06413831568316442
7.356,-0.09790101975173643
7.3580000000000005,-0.06709292539233014
7.36,-0.09807832565839464
7.362,-0.06369972436418361
7.364,-0.046303633582048746
7.3660000000000005,-0.08391741599368896
7.368,-0.06973566974583975
7.37,-0.0828172529447312
7.372,-0.07788343614476766
7.3740000000000006,-0.10207514153393177
7.376,-0.09917339865191874
7.378,-0.08450490080234262
7.38,-0.09820492865513199
7.382000000000001,-0.07463207302632296
7.384,-0.10508654301362408
7.386,-0.11553534203184401
7.388,-0.07778378457465668
7.390000000000001,-0.15455117586416928
7.392,-0.14053701573776578
7.394,-0.12430852245694823
7.396,-0.11735658154849442
7.398000000000001,-0.11629049400585807
7.4,-0.11532719048926092
7.402,-0.1558571775451617
7.404,-0.12419637676197177
7.406000000000001,-0.14926705408674718
7.408,-0.11058321684493419
7.41,-0.1450576210236171
7.412,-0.14036419191549906
7.414000000000001,-0.15990292167055783
7.416,-0.17556175740728877
7.418,-0.14520014824459454
7.42,-0.17825544558814038
7.422000000000001,-0.15014074932828195
7.424,-0.1917669463965873
7.426,-0.1719610050116831
7.428,-0.20148412493752854
7.43,-0.1662584060541576
7.432,-0.20172939562871317
7.434,-0.2216162221268178
7.436,-0.19593580013633322
7.438,-0.18296708225645292
7.44,-0.16537645098174683
7.442,-0.15610723364992465
7.444,-0.18056810987912777
7.446,-0.1947000384528719
7.448,-0.17109837144636686
7.45,-0.21380190877238847
7.452,-0.18957999455293895
7.454,-0.22102486245459937
7.456,-0.18899707054966325
7.458,-0.20897312872319063
7.46,-0.19059708272894713
7.462,-0.20581248992259088
7.464,-0.18135593425537508
7.466,-0.20496581912318731
7.468,-0.19215892753781766
7.47,-0.1819569042274334
7.472,-0.21314269737777397
7.474,-0.18779428770239723
7.476,-0.2201399291659727
7.478,-0.16972302553030633
7.48,-0.21658372843660909
7.482,-0.18031339008558273
7.484,-0.18756997539527037
7.486,-0.19502358306205686
7.488,-0.1899721802337377
7.49,-0.1897842036978355
7.492,-0.17729984673717078
7.494,-0.18471814778527906
7.496,-0.11975573298071628
7.498,-0.15097266935471215
7.5,-0.15353365923768722
7.502,-0.16150261854879533
7.5040000000000004,-0.167653543485144
7.506,-0.1353727473872053
7.508,-0.1522209733702587
7.51,-0.15417906837102371
7.5120000000000005,-0.11608865433451253
7.514,-0.12595007431667427
7.516,-0.12867123492671578
7.518,-0.15782287669639006
7.5200000000000005,-0.13340919794884717
7.522,-0.15212969166918025
7.524,-0.10878207021133204
7.526,-0.12845447982426506
7.5280000000000005,-0.11114342936192453
7.53,-0.12274247321545873
7.532,-0.07671667011979413
7.534,-0.12454673056213279
7.5360000000000005,-0.10306294619260306
7.538,-0.12710506976653468
7.54,-0.07670326974548483
7.542,-0.07682339439081975
7.5440000000000005,-0.0944337923205869
7.546,-0.1341538831203251
7.548,-0.08675831287733318
7.55,-0.07619167543122525
7.5520000000000005,-0.07046082021784325
7.554,-0.08376223186501634
7.556,-0.11968714995419266
7.558,-0.07829451459059618
7.5600000000000005,-0.06749528631275073
7.562,-0.04674865129687039
7.564,-0.052615370703710994
7.566,-0.047936580549390914
7.5680000000000005,-0.04824357757726909
7.57,-0.05671881017377763
7.572,-0.07254085050989222
7.574,-0.033796790834175736
7.5760000000000005,-0.048454720619258054
7.578,-0.007664527485260111
7.58,-0.06326543339422361
7.582,-0.06961203151663159
7.5840000000000005,-0.045951904540877705
7.586,-0.08082004296458407
7.588,-0.07856066569344743
7.59,-0.05683143991099726
7.5920000000000005,-0.030605324379610246
7.594,-0.04084393696371948
7.596,-0.0439091549098978
7.598,-0.08716298499676756
7.6000000000000005,-0.04300454871284228
7.602,-0.07953360056585239
7.604,-0.04403002133454232
7.606,-0.09184706433270538
7.6080000000000005,-0.05966281696217462
7.61,-0.08708611089906658
7.612,-0.059282049272314535
7.614,-0.01626204108353281
7.6160000000000005,-0.05092523341287214
7.618,-0.04429724574963259
7.62,-0.048465138850220954
7.622,-0.09977103627136633
7.6240000000000006,-0.058498620943307426
7.626,-0.06959621526455416
7.628,-0.02996477852549893
7.63,-0.05038704425420669
7.632000000000001,-0.01689718881846783
7.634,-0.038188800714045595
7.636,-0.01823193772398494
7.638,-0.009101371665199195
7.640000000000001,-0.043666037005962624
7.642,-0.0424139580733353
7.644,-0.018552601375872665
7.646,-0.05848352590566305
7.648000000000001,-0.05842240370669892
7.65,-0.06986141942028162
7.652,-0.037698198847117906
7.654,-0.055813679712198305
7.656000000000001,-0.0623652884700977
7.658,-0.06289343902266546
7.66,-0.06899100166624714
7.662,-0.0522228345235137
7.664000000000001,-0.06907571743150524
7.666,-0.01936435671259504
7.668,-0.035076945729954824
7.67,-0.0019932878558173114
7.672000000000001,-0.07634917545896204
7.674,-0.031875233282582884
7.676,-0.058600221141871495
7.678,-0.03824475591223424
7.68,-0.05036943040977337
7.682,-0.015310652347463672
7.684,-0.04866147033157433
7.686,-0.06291951678575346
7.688,-0.013824793361183887
7.69,-0.048385485484426595
7.692,-0.06329428244396364
7.694,-0.0893381464796832
7.696,-0.039756894119188986
7.698,-0.07532027024351412
7.7,-0.06599816116432884
7.702,-0.0247161021579712
7.704,-0.044185386230828017
7.706,-0.027673227753523096
7.708,-0.03842170187858619
7.71,-0.03932740166606412
7.712,-0.08127862608404329
7.714,-0.06631237741044908
7.716,-0.04285844063332905
7.718,0.0027457579527821628
7.72,-0.020387040835421148
7.722,-0.036080005784665393
7.724,-0.0034896741142343758
7.726,0.003149795965052677
7.728,-0.04013186862496803
7.73,-0.03037393760661939
7.732,-0.02603815689633303
7.734,-0.017930558793100432
7.736,-0.04903680345530412
7.738,-0.010296898393687958
7.74,-0.04757434793899241
7.742,-0.01025949076241382
7.744,-0.013405795281859614
7.746,-0.015026252454119034
7.748,-0.040864525667123466
7.75,-0.002531153709447752
7.752,-0.04086048560984774
7.7540000000000004,-0.001130537914990945
7.756,0.009578657109357666
7.758,-0.00860307790364833
7.76,0.008048016021706236
7.7620000000000005,-0.005367284758458844
7.764,-0.008451667352482949
7.766,-0.004599019389679999
7.768,0.018544845318550447
7.7700000000000005,-0.021385395782207092
7.772,0.022875645149481955
7.774,0.019134380934923603
7.776,-0.005375448404807998
7.7780000000000005,0.06205001470962448
7.78,0.01968976549084054
7.782,0.030333235719059153
7.784,0.007251528258153311
7.7860000000000005,0.051451921556658904
7.788,0.05658385198994396
7.79,0.04836205634596988
7.792,0.03661037901387579
7.7940000000000005,0.05201931798047396
7.796,0.08518841901677994
7.798,0.04300413380965286
7.8,0.04995800974890335
7.8020000000000005,0.07123149431881323
7.804,0.06461977689654735
7.806,0.07397525855124963
7.808,0.05147852585356192
7.8100000000000005,0.07629124442955033
7.812,0.05616924211335157
7.814,0.08737754501087558
7.816,0.028427729596764012
7.8180000000000005,0.06102980017980475
7.82,0.08397862500511713
7.822,0.04559470394317565
7.824,0.09838518050359324
7.8260000000000005,0.061461321021939005
7.828,0.03336932459237284
7.83,0.056639459249646855
7.832,0.07834979724449756
7.8340000000000005,0.04261733527337673
7.836,0.0635792398778246
7.838,0.0458214832221454
7.84,0.044886520192041285
7.8420000000000005,0.06247137850950317
7.844,0.06047054901411959
7.846,0.05025891241281431
7.848,0.05627974160954216
7.8500000000000005,0.02850559782149613
7.852,0.052157680576603555
7.854,0.025376472489190394
7.856,0.023774950115682952
7.8580000000000005,-0.0004579260845647762
7.86,0.02552323687480107
7.862,0.03192986497175074
7.864,0.03157315349383971
7.8660000000000005,0.03236707436098346
7.868,-0.005599397745462049
7.87,-0.017381036000987393
7.872,-0.006499882503029094
7.8740000000000006,-0.03857199552122313
7.876,-0.017226818233163837
7.878,-0.021637035052507574
7.88,-0.05254228030752101
7.882000000000001,-0.05301222502365241
7.884,-0.05645462646129582
7.886,-0.06260479953492298
7.888,-0.03920251950196216
7.890000000000001,-0.06100278869136991
7.892,-0.07880222427700521
7.894,-0.09227656309917212
7.896,-0.06525342508982403
7.898000000000001,-0.08527486997056642
7.9,-0.09898810723933393
7.902,-0.08380256561760267
7.904,-0.07794451599257485
7.906000000000001,-0.07932918186984031
7.908,-0.03544070675367724
7.91,-0.03645384770631973
7.912,-0.02519495013055424
7.914000000000001,0.013528873017095712
7.916,0.03947188350606901
7.918,0.04997316489798352
7.92,0.11700300858090718
7.922000000000001,0.11434448099001909
7.924,0.1771139070209941
7.926,0.23242253816934758
7.928,0.25002175675217747
7.930000000000001,0.35223534144423213
7.932,0.3952503067920608
7.934,0.44338528238525954
7.936,0.4819394733071797
7.938,0.5418497123054012
7.94,0.6067184448332227
7.942,0.6556260381549589
7.944,0.662130323963591
7.946,0.7094302490561742
7.948,0.7568065835938537
7.95,0.7851470642974063
7.952,0.8630790741477364
7.954,0.8648548688655128
7.956,0.9561268919539063
7.958,0.9430957406847581
7.96,0.9740608044408776
7.962,0.9266832555359628
7.964,0.9478679753175208
7.966,0.9343683532821889
7.968,0.9397993805578393
7.97,0.9493091521396095
7.972,0.9484247089758672
7.974,0.9391325670584122
7.976,0.8919460781315655
7.978,0.852290926055971
7.98,0.817945450008632
7.982,0.79239301705019
7.984,0.7501498996176663
7.986,0.6979047155887593
7.988,0.6430810411750888
7.99,0.5603106850072646
7.992,0.5808086746426697
7.994,0.47804886238471994
7.996,0.5124579906395796
7.998,0.4261625839916713
8.0,0.374537952434261
8.002,0.31293843496872
8.004,0.2974945300594318
8.006,0.2275993630116652
8.008000000000001,0.22070756084130305
8.01,0.15255107421673403
8.012,0.12640138079561156
8.014,0.13834117762984716
8.016,0.07688467192369973
8.018,0.04351568210588958
8.02,0.011828856857656792
8.022,0.06232729759226375
8.024000000000001,0.008535875990646091
8.026,-0.0014160619754962972
8.028,0.02875177238870839
8.03,-0.030841028135938704
8.032,-0.0034732091903612212
8.034,-0.040085587175667126
8.036,-0.002662006182219616
8.038,0.011733206092568265
8.040000000000001,-0.009143050783660987
8.042,-0.01391899998136556
8.044,0.0009382729647863797
8.046,-0.028431143633013245
8.048,0.033286868849967316
8.05,0.004439433402251171
8.052,-0.011027411188219698
8.054,0.0022884702985063697
8.056000000000001,0.0024158929272684888
8.058,-0.011649012899471544
8.06,0.009546469144468904
8.062,0.007343955842814944
8.064,-0.022491996118219667
8.066,0.01790830951420492
8.068,0.001621830111415376
8.07,0.021691637851985992
8.072000000000001,0.0025957257448152027
8.074,0.02415979643889542
8.076,0.04205424513101842
8.078,-0.026682835012157766
8.08,0.03440015854856369
8.082,0.034164455905094246
8.084,0.003372517949044331
8.086,0.008063386593003543
8.088000000000001,0.0028426533908224244
8.09,0.024602248221925072
8.092,0.0345585075524416
8.094,0.009440015051129874
8.096,0.016603828301735856
8.098,0.016805478774692916
8.1,0.03541556888888008
8.102,0.0032617911091277116
8.104000000000001,0.020243023371775394
8.106,-0.012753214942227108
8.108,0.005624642783152384
8.11,0.03263647115864064
8.112,0.06196408597272312
8.114,0.023136829825930846
8.116,0.020981485123929368
8.118,-0.03603495137750021
8.120000000000001,0.0386200334722372
8.122,0.02838427884276154
8.124,-0.0022195050378017614
8.126,0.010477214996455183
8.128,0.06454828794536062
8.13,0.04749603985314797
8.132,0.04473042987973852
8.134,0.07081110896043177
8.136000000000001,0.02915011869106593
8.138,0.054155320610966125
8.14,0.036490930954991854
8.142,0.027528545233498812
8.144,-0.007549273528209102
8.146,0.020858790519424596
8.148,0.053364076544471284
8.15,0.039480973219854276
8.152000000000001,0.02368785863737137
8.154,0.04384345929658226
8.156,-0.005138694726189501
8.158,0.02045362856109247
8.16,0.033008934319409274
8.162,0.012058928574541427
8.164,0.0241685088918996
8.166,0.0038097326840322784
8.168000000000001,0.021242359735649557
8.17,0.033681217514428055
8.172,0.02933314310166861
8.174,0.004170674576155682
8.176,0.014715358070569838
8.178,0.03731779211006047
8.18,0.04348359833139259
8.182,0.01044419656228372
8.184000000000001,0.031050883798356757
8.186,-0.0012491376636864539
8.188,-0.021027166973389154
8.19,-0.009876777791779293
8.192,-0.022948145695852476
