time,ecg
0.0,-0.002530814007716296
0.002,-0.01822603757322623
0.004,-0.011800043227727083
0.006,0.021632047535148014
0.008,-0.0031844171747093374
0.01,0.006073571922751569
0.012,0.04888049448457538
0.014,0.01587126965502997
0.016,0.015412086127524805
0.018000000000000002,0.005978745355215083
0.02,-0.0012543057091169091
0.022,0.03657907780510203
0.024,0.008707818023984681
0.026000000000000002,0.01251333312200027
0.028,0.012077282963649818
0.03,-0.0014648664777286297
0.032,0.047442610038343686
0.034,0.03729537934691477
0.036000000000000004,0.03142553541621298
0.038,-0.012265672183719274
0.04,0.018132063744916792
0.042,0.03735876917604515
0.044,0.02949960283659126
0.046,0.04212775352243826
0.048,0.0722773981627196
0.05,0.06032110295716553
0.052000000000000005,0.022100706775872336
0.054,0.07421721381482638
0.056,0.07816830846572356
0.058,0.09313963739251988
0.06,0.06209361879388768
0.062,0.11364093710570315
0.064,0.05623379928400543
0.066,0.07412328727122228
0.068,0.10226915206941717
0.07,0.05258976000231928
0.07200000000000001,0.05862771137662597
0.074,0.07363619545765283
0.076,0.08418672389228676
0.078,0.09642223440724648
0.08,0.1137621692377733
0.082,0.12615557005275513
0.084,0.12344965606728336
0.08600000000000001,0.13753373319247886
0.088,0.10515029420743317
0.09,0.09272615186049836
0.092,0.09400491486731805
0.094,0.09232592842180909
0.096,0.11364474296493093
0.098,0.10807195716059165
0.1,0.12943958251804702
0.10200000000000001,0.12717124588559864
0.10400000000000001,0.06792551118993981
0.106,0.11051144290582707
0.108,0.11652923182348567
0.11,0.13045236132227905
0.112,0.10562814745150527
0.114,0.12055479263986987
0.116,0.12190362708802699
0.11800000000000001,0.08096042759344635
0.12,0.09189874198729608
0.122,0.10012684062426949
0.124,0.10658079682949018
0.126,0.10677397708227201
0.128,0.12362472967826728
0.13,0.10850154199527298
0.132,0.11487421738203281
0.134,0.09187196722776472
0.136,0.0216707940942523
0.138,0.05761990039862558
0.14,0.05892426745529627
0.14200000000000002,0.058133641214878407
0.14400000000000002,0.07171687385794889
0.146,0.03895329182970222
0.148,0.07541299070542962
0.15,0.07867655284541653
0.152,0.04623804055767733
0.154,0.03858639700586089
0.156,0.06243405997492091
0.158,0.054282650695194674
0.16,0.028532402339187798
0.162,0.023248688697707708
0.164,-0.004800045107911046
0.166,0.007177325719936834
0.168,-0.004837369059134979
0.17,0.0007088380607304587
0.17200000000000001,-0.022581053762938796
0.17400000000000002,-0.0018755877786859054
0.176,-0.04553674841072425
0.178,-0.053564198358891875
0.18,-0.028191615825524652
0.182,-0.06535786739003763
0.184,-0.0604492479563762
0.186,-0.06343390715961492
0.188,-0.0419425131883347
0.19,-0.060775602263026585
0.192,-0.04923874074739201
0.194,-0.010268152054756001
0.196,-0.028389647496471306
0.198,0.02444651476542182
0.2,0.06646357091241487
0.202,0.07880904276079817
0.20400000000000001,0.136528207475957
0.20600000000000002,0.12208851396312728
0.20800000000000002,0.1535066921749602
0.21,0.2368675890965415
0.212,0.28576062894914145
0.214,0.2983090581788976
0.216,0.34368734469682755
0.218,0.42257547000993423
0.22,0.4673907495370605
0.222,0.5170855298049775
0.224,0.5797662544534292
0.226,0.6224842600903266
0.228,0.6962357666174095
0.23,0.7302729837899076
0.232,0.7998333485202495
0.234,0.8317338717792091
0.23600000000000002,0.8624529502006495
0.23800000000000002,0.9169305130151728
0.24,0.9486024060992317
0.242,0.9541563467074365
0.244,0.954393611521296
0.246,0.9910641371571037
0.248,1.002798227814055
0.25,1.0177963107317207
0.252,1.0299872867588875
0.254,0.9832110800764783
0.256,0.9723959574163906
0.258,0.9814573178601181
0.26,0.9251440176571794
0.262,0.9338254972527313
0.264,0.8628861536422007
0.266,0.8572872367659946
0.268,0.8264250276196001
0.27,0.8006243177730343
0.272,0.7331657025411987
0.274,0.6866752827785216
0.276,0.6464584524082657
0.278,0.5848469294673986
0.28,0.5135548795459903
0.28200000000000003,0.5250129685583983
0.28400000000000003,0.42990467991478326
0.28600000000000003,0.3907253817396833
0.28800000000000003,0.3544545775188071
0.29,0.324680429773957
0.292,0.3065950663087309
0.294,0.2559850323729591
0.296,0.2105705477182155
0.298,0.18086193902208597
0.3,0.1779081398421582
0.302,0.09628358125168004
0.304,0.0964602051750273
0.306,0.0832197679534761
0.308,0.06387291935434171
0.31,0.038026495362913956
0.312,0.06667781892009152
0.314,0.028711481199166444
0.316,0.008227376127224255
0.318,0.013376894662594072
0.32,0.025473481421977806
0.322,0.025743154810098638
0.324,0.03576280316502653
0.326,0.027940220943955884
0.328,0.006578332696345276
0.33,0.020923067283544945
0.332,0.049027298002476564
0.334,0.01152749104216254
0.336,0.05106278128411022
0.338,0.028059562859477354
0.34,0.03839655670972078
0.342,0.024172573128703884
0.34400000000000003,0.030291833378945233
0.34600000000000003,-0.0033321164004504918
0.34800000000000003,0.017624425037145355
0.35000000000000003,0.049947082590983224
0.352,0.024687657363604832
0.354,0.04552966939906817
0.356,0.06876966798139594
0.358,0.06209724422687
0.36,0.04100386991208726
0.362,0.04808131726070885
0.364,0.030858206868790122
0.366,0.08742094329400656
0.368,0.04194321464203525
0.37,0.05429051990948636
0.372,0.035306765269768677
0.374,0.04983107625343552
0.376,0.028760574265073665
0.378,0.031071995745402464
0.38,0.06845120308575303
0.382,0.050069319398589565
0.384,0.040060058282793624
0.386,0.063828744474774
0.388,0.04057921175261932
0.39,0.07605032267143144
0.392,0.0744409705879643
0.394,0.038471082223134556
0.396,0.057416687364460976
0.398,0.07227837959338815
0.4,0.06518199760462809
0.402,0.06118959781984274
0.404,0.04307906429822495
0.406,0.054421759632024405
0.40800000000000003,0.04603829047375961
0.41000000000000003,0.03366981186593859
0.41200000000000003,0.05343317188495327
0.41400000000000003,0.07131284373591426
0.41600000000000004,0.055042009443458655
0.418,0.02510837169490874
0.42,0.060683057139187355
0.422,0.055967966131161825
0.424,0.049763378298036495
0.426,0.040164508804175186
0.428,0.06511823228063209
0.43,0.031228641139646525
0.432,0.028648776265197837
0.434,0.10118143144685846
0.436,0.06671452217869099
0.438,0.06021492862509804
0.44,0.040670532142539816
0.442,0.024314799294411164
0.444,0.06405651636872539
0.446,0.008206954983470158
0.448,0.07068271964335288
0.45,0.08056505506038998
0.452,0.0589887042067269
0.454,0.03294340464712702
0.456,0.035761684301777674
0.458,0.024867926417958177
0.46,0.026346349438066036
0.462,0.09347498750719811
0.464,0.04057933371315839
0.466,0.033477978797031495
0.468,0.012584706937362168
0.47000000000000003,0.05919703509645559
0.47200000000000003,0.0600008961980252
0.47400000000000003,0.05419000744832751
0.47600000000000003,0.03813877113479818
0.47800000000000004,0.07847552379928721
0.48,0.030393574877195403
0.482,0.043156773967025365
0.484,0.007997199994674593
0.486,0.04435986374149031
0.488,0.0324084962855628
0.49,0.022215017154863795
0.492,0.05046663180432053
0.494,0.031471229132782094
0.496,0.0188199153597927
0.498,0.010090191527190026
0.5,0.035687882609609735
0.502,-0.013189035749914802
0.504,0.006834440784803754
0.506,0.057256397754714985
0.508,-0.011639436552963262
0.51,-0.020988764151043386
0.512,-0.029106894645966948
0.514,0.03723030603521487
0.516,0.003064256019618461
0.518,-0.014970405236610994
0.52,0.007583463137358977
0.522,0.03544037133945775
0.524,-0.04859361864462123
0.526,-0.013694890926611428
0.528,-0.014111230428657515
0.53,0.024934323976721906
0.532,-0.011628439512595908
0.534,-0.029040557694108023
0.536,-0.015187115311919783
0.538,-0.007566952374466099
0.54,-0.028212948317144812
0.542,-0.019776233812989
0.544,-0.05024485776144476
0.546,-0.0403427783589384
0.548,-0.056683658872791046
0.55,-0.05889111454466801
0.552,-0.060275878363253495
0.554,-0.023337760314637093
0.556,-0.021085074316814778
0.558,-0.0601285529229532
0.56,-0.07524282298832209
0.562,-0.05661337880000222
0.5640000000000001,-0.08369728161412138
0.5660000000000001,-0.08026230222796712
0.5680000000000001,-0.10345909786169696
0.5700000000000001,-0.09836302159496144
0.5720000000000001,-0.08606691855784489
0.5740000000000001,-0.0656002167037207
0.5760000000000001,-0.07799576447305792
0.578,-0.1063118761758008
0.58,-0.10407618112582087
0.582,-0.08835655573048246
0.584,-0.09569152676794108
0.586,-0.11146448148423765
0.588,-0.08177715038476878
0.59,-0.11685696838912057
0.592,-0.10795244508812843
0.594,-0.10081115907892993
0.596,-0.06603946538694223
0.598,-0.12527678148760177
0.6,-0.09456070045526116
0.602,-0.10715448097995321
0.604,-0.12434427317219873
0.606,-0.08444062252148841
0.608,-0.10228916136323185
0.61,-0.12405009820594508
0.612,-0.08988410691731402
0.614,-0.12649532500352556
0.616,-0.10086270857677362
0.618,-0.12874921120098592
0.62,-0.10244594510316071
0.622,-0.05971470577408397
0.624,-0.11133685700582062
0.626,-0.0887733554177873
0.628,-0.049896270701704215
0.63,-0.05693500496489426
0.632,-0.087590422209164
0.634,-0.10230244628382246
0.636,-0.061877459605335985
0.638,-0.07643174834814218
0.64,-0.07669199589464842
0.642,-0.06787573985904993
0.644,-0.10954027242925984
0.646,-0.03991542955832819
0.648,-0.05934655151799997
0.65,-0.06612701953292674
0.652,-0.07791706830571656
0.654,-0.01174967104897158
0.656,-0.0054788551107398525
0.658,-0.07491031367030955
0.66,-0.05282367261603331
0.662,-0.021677073628671203
0.664,-0.0235508956085584
0.666,-0.035405917538559935
0.668,-0.030539824885710214
0.67,-0.025967028109987453
0.672,-0.04436853731138525
0.674,-0.041657036877784714
0.676,-0.012513574899325426
0.678,0.007838472061037424
0.68,-0.02401222490737122
0.682,0.011995557113139113
0.684,-0.010091511210781667
0.686,-0.017609001980008657
0.6880000000000001,-0.010370886287168736
0.6900000000000001,0.04116152810186376
0.6920000000000001,-0.0067020388005351456
0.6940000000000001,0.010283233799776803
0.6960000000000001,0.017887270767354344
0.6980000000000001,0.003523390137438749
0.7000000000000001,0.014249515853747716
0.7020000000000001,0.010421929138320154
0.704,-0.003752259890145819
0.706,-0.006231424684117515
0.708,0.00011818703411365858
0.71,0.021403771773452603
0.712,0.022432277348891718
0.714,0.03308146605428838
0.716,0.030082496958004874
0.718,0.037481991192721414
0.72,0.027479516795197577
0.722,0.011345929531558848
0.724,-0.0021635945995559184
0.726,0.03648064921270702
0.728,0.024401962562776568
0.73,-0.015566352789338928
0.732,-0.01231804973034682
0.734,0.014149326941054217
0.736,0.0372552576658849
0.738,0.05255877261126352
0.74,0.06240820707956074
0.742,0.030656693528711948
0.744,0.039317488610153745
0.746,0.03678042740019589
0.748,0.011223077415682344
0.75,0.0475352407410527
0.752,0.009118041758451389
0.754,0.04443039559722285
0.756,0.03802081525342557
0.758,0.021801955136796423
0.76,0.02220117186957663
0.762,0.014429507468990651
0.764,0.0502168519075729
0.766,0.031245816105466742
0.768,0.03310502259485546
0.77,0.020721656162263968
0.772,0.037839850848025255
0.774,0.0286195086548081
0.776,0.038484550314329596
0.778,0.04076113464531247
0.78,0.030801106312132127
0.782,0.01565863439574694
0.784,0.011630767179681313
0.786,0.0694899722865045
0.788,0.03216174373986507
0.79,0.03765237853436705
0.792,0.040241181209517335
0.794,0.010949394090636163
0.796,0.03567070375157182
0.798,0.04473959879927641
0.8,0.007824220220772995
0.802,0.030383649735311807
0.804,0.02114227092258106
0.806,0.012605003444188289
0.808,0.03469785054392962
0.81,0.029524886763571814
0.812,0.018273623931699044
0.8140000000000001,0.03215678652354824
0.8160000000000001,0.030683059604627482
0.8180000000000001,0.022189508124577307
0.8200000000000001,0.010134098842458188
0.8220000000000001,0.03644300313893679
0.8240000000000001,0.029156119580132103
0.8260000000000001,0.03426348997049291
0.8280000000000001,0.027104360057170897
0.8300000000000001,0.005852841992656054
0.8320000000000001,0.01253646015248542
0.834,0.022777735999777973
0.836,0.0032360377785568125
0.838,0.022564710659988947
0.84,0.027008729513504626
0.842,0.03896352943205496
0.844,0.03270487318479932
0.846,0.004231584085581535
0.848,-0.033529291977658686
0.85,0.04261694760621471
0.852,0.010272241699008545
0.854,0.022560404656655753
0.856,0.03364483538659683
0.858,0.03801756678272904
0.86,0.024848299435750315
0.862,0.03154229608721237
0.864,0.023624301630078615
0.866,0.024665820917437492
0.868,0.07235354502566704
0.87,0.03395351221061781
0.872,-0.013312293803585486
0.874,0.0206086331484181
0.876,0.02122376527232946
0.878,0.03001754875296116
0.88,0.007248051456684673
0.882,0.023401804472289418
0.884,0.04304758722865844
0.886,-0.03707375698499608
0.888,0.05622376619572024
0.89,0.0514194679607282
0.892,0.020586225730249177
0.894,0.026535557288037588
0.896,0.049373824161977733
0.898,0.07916288085817061
0.9,0.01611917122651844
0.902,0.0774510617606695
0.904,0.05760890992922254
0.906,0.04276793515382931
0.908,0.07539445928764216
0.91,0.04817056377619576
0.912,0.06258166219675128
0.914,0.0472789446194085
0.916,0.08865631732209515
0.918,0.07306767656106335
0.92,0.09091936591878345
0.922,0.10422328673586723
0.924,0.09739854171695383
0.926,0.055733400679328415
0.928,0.09090768365917276
0.93,0.10517400334429536
0.932,0.1009155368200344
0.934,0.0854260262438722
0.936,0.09065531548124654
0.9380000000000001,0.09981390152577899
0.9400000000000001,0.07158829791243254
0.9420000000000001,0.10217859665154318
0.9440000000000001,0.09928433230962912
0.9460000000000001,0.10651845355553596
0.9480000000000001,0.09471917730383234
0.9500000000000001,0.10666445951653925
0.9520000000000001,0.09680606574987768
0.9540000000000001,0.08317775452944465
0.9560000000000001,0.09814645899610261
0.9580000000000001,0.1136761410491606
0.96,0.1067986641790539
0.962,0.11414128517416343
0.964,0.08383748229280001
0.966,0.1062991759588054
0.968,0.09246665370719895
0.97,0.09224153918442589
0.972,0.11935128109748858
0.974,0.10128548902574756
0.976,0.10852905594518261
0.978,0.0836150408011577
0.98,0.05733915971711923
0.982,0.05442893395027139
0.984,0.10264574492667261
0.986,0.08248213807930282
0.988,0.08134606498761053
0.99,0.06526336998529485
0.992,0.08924987618704945
0.994,0.0014809356595444495
0.996,0.026557402021357892
0.998,0.059558726966492365
1.0,-0.0038352945142235625
1.002,0.034751749411681174
1.004,0.03350104704719594
1.006,0.04785561094477569
1.008,0.007614631501400491
1.01,0.04268186144468529
1.012,0.048511335518269465
1.014,0.019407245797726076
1.016,-0.0237921713632813
1.018,-0.014339279785061644
1.02,-0.009912607961565713
1.022,-0.045161379105135416
1.024,-0.014949155281692142
1.026,-0.01969232592262113
1.028,-0.04556006228907508
1.03,-0.07408418005856038
1.032,-0.04736965926876797
1.034,-0.07358110028788346
1.036,-0.08495241604228089
1.038,-0.08113269489043723
1.04,-0.10431745577256632
1.042,-0.09628526323506667
1.044,-0.09681648233967897
1.046,-0.11052614103019717
1.048,-0.051710844687240666
1.05,-0.03447739769634682
1.052,-0.0397418249609018
1.054,-0.020311422957545
1.056,0.02014732580811945
1.058,0.07110473929480762
1.06,0.02468938638665513
1.062,0.06460003943976494
1.064,0.11868141607341896
1.066,0.15747819517707473
1.068,0.2098888363541778
1.07,0.26230980881395877
1.072,0.31433087873962867
1.074,0.3626485890736446
1.076,0.3999821150792622
1.078,0.44799520744906784
1.08,0.5087800512123247
1.082,0.5654296233478369
1.084,0.6029736012532849
1.086,0.6612877050281929
1.088,0.727711093012857
1.09,0.753863481765854
1.092,0.815042306231681
1.094,0.8652301654533423
1.096,0.8894360339845394
1.098,0.9012973157680222
1.1,0.928307262769809
1.102,0.9399437912270355
1.104,0.9416994181875511
1.106,0.9461782068762784
1.108,0.9694436774281137
1.11,0.9496120842331627
1.112,0.9367225737779871
1.114,0.9193826943339416
1.116,0.9300784463285189
1.118,0.8648903120104896
1.12,0.8675009299587284
1.122,0.8280610391791123
1.124,0.8129913431128782
1.1260000000000001,0.7449701070126804
1.1280000000000001,0.6760452136984499
1.1300000000000001,0.6830350714089499
1.1320000000000001,0.6356565095699456
1.1340000000000001,0.5339867545278282
1.1360000000000001,0.5006455851884578
1.1380000000000001,0.47232197780947754
1.1400000000000001,0.40308759439627695
1.1420000000000001,0.3777898169037931
1.1440000000000001,0.3217731702519457
1.1460000000000001,0.2901132177772444
1.1480000000000001,0.2571588258087222
1.1500000000000001,0.22145209363683588
1.1520000000000001,0.16799219971200166
1.154,0.12757576946020124
1.156,0.09362012484094212
1.158,0.04586963144748551
1.16,0.04394936947025808
1.162,0.006949073321317431
1.164,0.019759607741033698
1.166,-0.01500892426765807
1.168,-0.024708744288776063
1.17,-0.031246438244003315
1.172,0.011510336034903444
1.174,-0.009439824941804701
1.176,-0.07419785972110635
1.178,-0.0856385026909516
1.18,-0.047919936372167043
1.182,-0.06820471787339802
1.184,-0.03406576797123313
1.186,-0.0594615503375772
1.188,-0.06561274438036466
1.19,-0.018312478591361946
1.192,-0.035660904405776614
1.194,-0.02240855793036582
1.196,-0.030125199494389483
1.198,-0.022949418323921326
1.2,-0.032347973284698496
1.202,-0.054378076701355145
1.204,-0.018641749423392674
1.206,-0.05345539922683801
1.208,-0.03250195771562115
1.21,-0.002615206164599496
1.212,-0.02336655766091701
1.214,-0.01528557103601087
1.216,-0.05619848285477045
1.218,-0.013417929977239743
1.22,-0.0577886877220079
1.222,-0.044744316085002116
1.224,-0.020743404137702565
1.226,0.026973342442803992
1.228,-0.035085655599216704
1.23,-0.013216389874825539
1.232,-0.02596232865787652
1.234,-0.09665231940706678
1.236,-0.036652809509395035
1.238,-0.032256192953725595
1.24,-0.04728594500598598
1.242,-0.05036658691476589
1.244,-0.03807524113772349
1.246,-0.016785103124724907
1.248,-0.03358162236752411
1.25,-0.03710734491620404
1.252,-0.00741837343633344
1.254,-0.022344615967294562
1.256,-0.03165772732023796
1.258,-0.01752003754986859
1.26,-0.05366413115729691
1.262,-0.026016683567054773
1.264,-0.07794081485149648
1.266,-0.02777417915250234
1.268,-0.018561536602104932
1.27,-0.06784720631970788
1.272,-0.01365490030983075
1.274,-0.015063148688598395
1.276,-0.037887060856963466
1.278,-0.0526478783067683
1.28,-0.02774822907549008
1.282,-0.00535124634314264
1.284,-0.016551243242669468
1.286,-0.03288898726446002
1.288,-0.05012219865795095
1.29,-0.056373655906359656
1.292,-0.007092820344149127
1.294,-0.08357728272454684
1.296,-0.030270255326568612
1.298,-0.004642743629617162
1.3,-0.005023223922033122
1.302,-0.012083283035087546
1.304,-0.029216447876596406
1.306,-0.04321203800877194
1.308,-0.02077632199541
1.31,-0.04608200499445521
1.312,-0.006503533553415119
1.314,-0.040794220585912366
1.316,-0.04011765331224801
1.318,-0.06102382852688583
1.32,-0.05418556340035328
1.322,-0.030905340908279066
1.324,-0.07232239684913122
1.326,-0.050039907115038584
1.328,-0.053644957571453156
1.33,-0.04591745831507907
1.332,-0.04608814776348826
1.334,-0.07156482343250523
1.336,-0.06739568237490319
1.338,-0.08034433794774179
1.34,-0.07516888103223315
1.342,-0.04791306602322387
1.344,-0.07307209640519632
1.346,-0.08106618222371262
1.348,-0.10948764079078119
1.35,-0.07630219870445458
1.352,-0.069314991475591
1.354,-0.07573095448741275
1.356,-0.06811868260250267
1.358,-0.09146455279847554
1.36,-0.05333008544964671
1.362,-0.07976871372178426
1.364,-0.051969443684527585
1.366,-0.04418969491048567
1.368,-0.09359642636854501
1.37,-0.0677151543431081
1.372,-0.073701305832781
1.374,-0.08288615135591659
1.3760000000000001,-0.06358964150368299
1.3780000000000001,-0.13369166475119415
1.3800000000000001,-0.11299775228503078
1.3820000000000001,-0.08673956188038523
1.3840000000000001,-0.09651322443457401
1.3860000000000001,-0.12316172112419967
1.3880000000000001,-0.12321141149808207
1.3900000000000001,-0.10404383289215328
1.3920000000000001,-0.13535517393474547
1.3940000000000001,-0.11474783540947561
1.3960000000000001,-0.12212099545174741
1.3980000000000001,-0.17041606204651952
1.4000000000000001,-0.10562643458663372
1.4020000000000001,-0.15593724079735605
1.4040000000000001,-0.12804778877730288
1.4060000000000001,-0.13520706596870108
1.408,-0.18618814564094455
1.41,-0.1593749542022311
1.412,-0.15694932379208695
1.414,-0.18590831881647424
1.416,-0.17007387219188716
1.418,-0.1945275541970381
1.42,-0.15228987455231974
1.422,-0.17990597882274822
1.424,-0.18697835217284442
1.426,-0.1748955330994569
1.428,-0.19977117857468635
1.43,-0.17153387006251433
1.432,-0.20199439652913073
1.434,-0.1627247548129822
1.436,-0.20030268329751488
1.438,-0.1978287419846793
1.44,-0.18428353377418805
1.442,-0.20912853969673206
1.444,-0.19492069925817362
1.446,-0.20055687856303028
1.448,-0.18458367796507053
1.45,-0.2157821424472678
1.452,-0.20083551313056097
1.454,-0.1879503338281608
1.456,-0.16154747396450952
1.458,-0.21198432020387942
1.46,-0.19283219328097673
1.462,-0.1468491118357561
1.464,-0.23186432670089963
1.466,-0.2009201257727031
1.468,-0.1708931470584919
1.47,-0.2098501033456649
1.472,-0.17435963150880168
1.474,-0.17741357319694886
1.476,-0.19545797142023613
1.478,-0.1797136303204577
1.48,-0.15607136199419988
1.482,-0.1553821565496179
1.484,-0.20109139495734013
1.486,-0.1845446406797517
1.488,-0.1497258776455542
1.49,-0.194115163086668
1.492,-0.19888961914540065
1.494,-0.18798274223562983
1.496,-0.19897367315164605
1.498,-0.19077349180198783
1.5,-0.17173628521695844
1.502,-0.17761610809478773
1.504,-0.1583114563020685
1.506,-0.17740009869185974
1.508,-0.17033725880908157
1.51,-0.14123927177397966
1.512,-0.14134369313626544
1.514,-0.13313164665578886
1.516,-0.17235506649991975
1.518,-0.13956623939317708
1.52,-0.13198968386798
1.522,-0.11619475410440797
1.524,-0.1292520822973739
1.526,-0.10760102598897615
1.528,-0.09514718051526751
1.53,-0.1308154352527956
1.532,-0.08931787684803012
1.534,-0.10061641314900269
1.536,-0.12054741144947094
1.538,-0.09900598074507728
1.54,-0.0945335659767477
1.542,-0.10285973437618252
1.544,-0.07570216099368066
1.546,-0.11244773375164512
1.548,-0.05862553154420703
1.55,-0.09394561162641624
1.552,-0.06567888166059406
1.554,-0.09314247860971603
1.556,-0.09527154068560435
1.558,-0.09012184223978548
1.56,-0.09074013003853479
1.562,-0.09111739513764239
1.564,-0.04289822900390575
1.566,-0.07210786102385683
1.568,-0.05175639259916792
1.57,-0.023647470741643306
1.572,-0.0233064361620877
1.574,-0.07215026623763188
1.576,-0.08699491517829677
1.578,-0.05633084481186611
1.58,-0.03717269267664262
1.582,-0.04516225456676906
1.584,-0.027947012405360953
1.586,-0.07520759272352531
1.588,-0.04822725170881117
1.59,-0.06683624024130906
1.592,-0.028683452365276214
1.594,-0.06771980150721116
1.596,-0.023010197441990864
1.598,-0.06008028804959395
1.6,-0.07089322066382661
1.602,-0.021892054463394112
1.604,-0.030189972935355042
1.606,-0.024818187321920853
1.608,-0.05614825024221752
1.61,-0.05557396749364795
1.612,-0.05011986143335593
1.614,-0.022320238739040283
1.616,-0.0318341176155341
1.618,-0.07118086045212503
1.62,-0.06526750703642938
1.622,-0.03610076524172508
1.624,-0.03923722071506541
1.6260000000000001,-0.031116520553487063
1.6280000000000001,-0.07194690634161614
1.6300000000000001,-0.023782673298124047
1.6320000000000001,-0.04231320150820862
1.6340000000000001,-0.03369195412456313
1.6360000000000001,-0.0811838884963652
1.6380000000000001,-0.04345532451803468
1.6400000000000001,-0.06127092394131328
1.6420000000000001,-0.08072818215407895
1.6440000000000001,-0.01808860443801635
1.6460000000000001,-0.06671755383956852
1.6480000000000001,-0.05531881117227658
1.6500000000000001,0.002617903540322178
1.6520000000000001,-0.0493935040329914
1.6540000000000001,-0.006127768819777557
1.6560000000000001,-0.06154553533303037
1.6580000000000001,-0.04596098231949461
1.6600000000000001,-0.062494748904927754
1.6620000000000001,-0.004678631952438335
1.6640000000000001,-0.05162789766139553
1.666,-0.03928507363370959
1.668,-0.03475534670109429
1.67,-0.08728134125531556
1.672,-0.05044895073203832
1.674,-0.06653249224311361
1.676,-0.06636456434976654
1.678,-0.0693412990523447
1.68,-0.05006787971717568
1.682,-0.06896431948045198
1.684,-0.055206998668021076
1.686,-0.028492762394382615
1.688,-0.028177580853260303
1.69,-0.058666240640408235
1.692,-0.05777845003463865
1.694,-0.04117486658303282
1.696,-0.024915018725802325
1.698,-0.05816954279035576
1.7,-0.02086291588284257
1.702,-0.06201361014178357
1.704,-0.03261342407948723
1.706,-0.05180893031361283
1.708,-0.08738042990191058
1.71,-0.04442456134627803
1.712,-0.04904068716806245
1.714,-0.006373396954619917
1.716,-0.026585110812827335
1.718,-0.017099918553382294
1.72,0.013954527047495127
1.722,-0.014438089500985091
1.724,-0.040968139699513025
1.726,-0.04625765071784253
1.728,-0.04103763440371532
1.73,-0.00961196171260062
1.732,-0.0688009963665646
1.734,-0.07256439651699023
1.736,-0.05022988233164874
1.738,-0.02826664127990019
1.74,-0.03474059290823927
1.742,-0.01457879862312867
1.744,-0.03636157525291092
1.746,-0.006391025229346399
1.748,-0.013404096476919463
1.75,0.009253812992473711
1.752,-0.01353869708670023
1.754,0.03941166072460907
1.756,0.00363358456511639
1.758,-0.00476062401332834
1.76,0.004251070530692614
1.762,0.017589962479432848
1.764,0.018017768982117658
1.766,0.034149914584366885
1.768,-0.02178856158601366
1.77,-0.02174577188636137
1.772,0.0007440629054615289
1.774,0.006437343913338056
1.776,0.020510430226243867
1.778,-0.007775484360504514
1.78,0.04519164827173433
1.782,0.04912150375177784
1.784,0.06712961089534965
1.786,0.028972646131554543
1.788,0.018349566945990776
1.79,0.05407632842126201
1.792,0.07437822904691326
1.794,0.06340918406132962
1.796,0.042359931818437536
1.798,0.025978800300177032
1.8,0.03573753292907294
1.802,0.04103746608820512
1.804,0.0729638429693308
1.806,0.08171439076066768
1.808,0.055846460253506855
1.81,0.09978163069303944
1.812,0.07074507121316025
1.814,0.08490177686915898
1.816,0.06615877000769138
1.818,0.04599616911530015
1.82,0.04549024796279323
1.822,0.0585888745236432
1.824,0.05797406303938362
1.826,0.09498026777900478
1.828,0.06134461720013779
1.83,0.05536209441125835
1.832,0.06729659345518678
1.834,0.1039495494299668
1.836,0.06463294703469705
1.838,0.05902869959535409
1.84,0.03957713820066079
1.842,0.03536360504076897
1.844,0.0337729539411714
1.846,0.02863007752210177
1.848,0.04252591972339757
1.85,0.017290735196821477
1.852,0.05309527844369657
1.854,0.027879151552553195
1.856,0.010856375398792008
1.858,0.04146863442847129
1.86,0.022370847727655387
1.862,0.003052048733424944
1.864,0.005914762710635232
1.866,0.02048908976629519
1.868,0.01587455198213882
1.87,-0.03931852042005295
1.872,-0.019798935437977328
1.874,0.0010341640203045165
1.8760000000000001,-0.04307678589193399
1.8780000000000001,-0.03952024183726714
1.8800000000000001,-0.028712061087196077
1.8820000000000001,-0.03204580693814387
1.8840000000000001,-0.06961355275797662
1.8860000000000001,-0.06723038670240314
1.8880000000000001,-0.07923630498699244
1.8900000000000001,-0.09170634986640346
1.8920000000000001,-0.06621149804399046
1.8940000000000001,-0.0754165717489801
1.8960000000000001,-0.09812467349385623
1.8980000000000001,-0.08930682872531094
1.9000000000000001,-0.10704539515131548
1.9020000000000001,-0.13160483334946432
1.9040000000000001,-0.08789647591986018
1.9060000000000001,-0.07077783669390858
1.9080000000000001,-0.06392225990889737
1.9100000000000001,-0.020206839716168157
1.9120000000000001,-0.024424640948407687
1.9140000000000001,-0.02674928662238197
1.9160000000000001,0.0158147453379653
1.9180000000000001,0.03436561815978467
1.92,0.06179034529580857
1.922,0.08943483494034296
1.924,0.16964025267617544
1.926,0.18373517786191487
1.928,0.2697487666077164
1.93,0.3362324320266925
1.932,0.3355303719657169
1.934,0.4302010462940144
1.936,0.5018495909832049
1.938,0.5478700839854422
1.94,0.5796497204493116
1.942,0.656521087226946
1.944,0.6736332230250139
1.946,0.7060634615847258
1.948,0.76807035746255
1.95,0.8037722083916236
1.952,0.8352377991545876
1.954,0.9116514487316876
1.956,0.9024348672528244
1.958,0.9471986461932158
1.96,0.9436506642660798
1.962,0.9272470485357498
1.964,0.9804079512690473
1.966,0.9855091874894935
1.968,0.9558240431833159
1.97,0.9729436139234993
1.972,0.913934268758979
1.974,0.9111556214321919
1.976,0.8529428937024401
1.978,0.8526212557325906
1.98,0.8382844361115769
1.982,0.7970920701600921
1.984,0.7610130316492977
1.986,0.7152987430374436
1.988,0.6580320681245283
1.99,0.6470589726453445
1.992,0.5538869050612791
1.994,0.5074501146984564
1.996,0.48005104907356283
1.998,0.4598948649111627
2.0,0.35919430147717446
2.0020000000000002,0.2978446478734477
2.004,0.3028634192454865
2.0060000000000002,0.24720080836684866
2.008,0.21908851288767253
2.0100000000000002,0.1437967443814615
2.012,0.13821473317586044
2.0140000000000002,0.08223427393857166
2.016,0.0829175939691406
2.0180000000000002,0.05533334786978677
2.02,0.039894841011898746
2.0220000000000002,0.03020674839489629
2.024,-0.0012571631936805251
2.0260000000000002,0.0024999459424912447
2.028,0.00274867125089114
2.0300000000000002,-0.0013658612389365922
2.032,0.015509558067519011
2.0340000000000003,0.009512859444025516
2.036,-0.028653497486337068
2.0380000000000003,0.0023597812649841475
2.04,-0.016566817757525318
2.0420000000000003,-0.0067092302160048824
2.044,-0.014063781539608777
2.0460000000000003,-0.028189520482783725
2.048,-0.015000832557658415
2.05,-0.028201587595567637
2.052,0.026350023331468124
2.054,-0.021062621099448516
2.056,-0.029594388939705264
2.058,-0.00799499916137503
2.06,0.01616010728786617
2.062,-0.03947405043767719
2.064,0.00803039540293645
2.066,0.006823636205072363
2.068,0.015333981801087321
2.07,0.0008426515859677949
2.072,0.028410396692079794
2.074,0.008800484533024643
2.076,0.018924048852758956
2.078,0.01512730951657037
2.08,0.028177333851846034
2.082,0.01145874077575316
2.084,0.03459686403095412
2.086,0.021759659702213045
2.088,-0.007329096489512749
2.09,0.007345467210513386
2.092,0.016306024208279694
2.094,0.029681342404190694
2.096,-0.00026245543699265786
2.098,0.0008824572110159468
2.1,0.018378552092405572
2.102,0.025216166764213135
2.104,0.01586757063258952
2.106,-0.012522765730795592
2.108,-0.027398889308651496
2.11,0.05582370946103281
2.112,0.030703111973236087
2.114,-0.03238025493317795
2.116,-0.0007206480746721213
2.118,0.01745721326000221
2.12,0.036205891330182795
2.122,0.008524374347216293
2.124,-0.002648034630142483
2.126,0.0234012378751912
2.128,0.01524161980274872
2.13,-0.006151932653531757
2.132,0.02279817020594587
2.134,0.0335032129527404
2.136,0.051509063042414
2.138,0.005477009435561191
2.14,0.054025476769323254
2.142,0.020260065137090347
2.144,0.008308978286950593
2.146,0.019131857092438833
2.148,0.03966175467231192
2.15,0.008299294136978944
2.152,0.0194910511537379
2.154,0.01416092803878529
2.156,0.04085968114646316
2.158,0.027152206999268694
2.16,0.020114961142066096
2.162,0.011896613073788764
2.164,0.01768649101852946
2.166,0.01609132881923159
2.168,0.02207586003947777
2.17,0.05442398413289251
2.172,0.02760612041858738
2.174,0.051069463746446817
2.176,0.016597408361456747
2.178,0.03170901063794516
2.18,-0.01073113939853631
2.182,0.019560324727332178
2.184,0.03445254238689957
2.186,0.002724800420693457
2.188,-0.011592711564543914
2.19,0.04728542125429222
2.192,0.002423972619337772
2.194,0.025481259557617295
2.196,0.013670263686499574
2.198,0.0251050070416661
2.2,0.02887140006695433
2.202,-0.0030186133188327725
2.204,-0.025912876506065805
2.206,-0.00574437322640782
2.208,-0.012803784596211735
2.21,0.00782864932271321
2.212,0.010839486447784097
2.214,0.03451544513994648
2.216,0.0019647864066826143
2.218,-0.020024776579909122
2.22,-0.02135043244029398
2.222,0.004866571651244031
2.224,-0.014107431836735743
2.226,-0.015810665134621926
2.228,0.004152428092003252
2.23,-0.036597340737567596
2.232,-0.0010116664984639936
2.234,-0.030366805999046037
2.236,-0.010330647927822255
2.238,-0.023230001615151867
2.24,-0.04591295300138794
2.242,-0.019146609344871376
2.244,0.00853113438410849
2.246,-0.056007743118397124
2.248,-0.029533958737687507
2.25,-0.04335453516689988
2.2520000000000002,-0.08072044433754674
2.254,-0.04077513845466636
2.2560000000000002,-0.013157464243539807
2.258,-0.03260789663940834
2.2600000000000002,-0.02258675570261026
2.262,-0.049393958658906736
2.2640000000000002,-0.07158576279500004
2.266,-0.0736565306041995
2.2680000000000002,-0.06105255231998436
2.27,-0.06616655274098471
2.2720000000000002,-0.07474738893102251
2.274,-0.062284359582062326
2.2760000000000002,-0.09112554186523965
2.278,-0.1024117043011801
2.2800000000000002,-0.09423613992302798
2.282,-0.10879949406792615
2.2840000000000003,-0.12168079554700215
2.286,-0.1023705350297281
2.2880000000000003,-0.10682149756519588
2.29,-0.1088982643700423
2.2920000000000003,-0.08951820593969227
2.294,-0.08311264611419902
2.2960000000000003,-0.12091850033974619
2.298,-0.10899025987892705
2.3000000000000003,-0.09180736191826604
2.302,-0.10193944506411595
2.3040000000000003,-0.10025150887560051
2.306,-0.09274457857862115
2.308,-0.12035700918291638
2.31,-0.11007641071210764
2.312,-0.0929142982374794
2.314,-0.11055943025244518
2.316,-0.08820708565529324
2.318,-0.11330606825361328
2.32,-0.10214587154070276
2.322,-0.07951077008133496
2.324,-0.13136762827114148
2.326,-0.10482736384576492
2.328,-0.06625228871186178
2.33,-0.12487754812738545
2.332,-0.11453531744185716
2.334,-0.09660457451451591
2.336,-0.07000672236152074
2.338,-0.12479996650999656
2.34,-0.05625005725869903
2.342,-0.12382839021039274
2.344,-0.07264905942196356
2.346,-0.08830671888665048
2.348,-0.06296019482190943
2.35,-0.08348341242954145
2.352,-0.08047099157861753
2.354,-0.05519852814326476
2.356,-0.062094037299803846
2.358,-0.09615368218249476
2.36,-0.026601130765295758
2.362,-0.019241153416000217
2.364,-0.07713386448979784
2.366,-0.043081734687901094
2.368,-0.06215975494541443
2.37,-0.007479195009068393
2.372,-0.0437703670099238
2.374,-0.02323071158946327
2.376,-0.058370348102956854
2.378,-0.04068537082991097
2.38,-0.03840004507793336
2.382,-0.014887368486585978
2.384,-0.03059513245399923
2.386,-0.012391496171676009
2.388,0.0016495845559080652
2.39,-0.025176529193727586
2.392,-0.018651853368003644
2.394,-0.011180560321665929
2.396,-0.014038999996951844
2.398,-0.027414843567332984
2.4,-0.024123356726092445
2.402,0.00039877599897543414
2.404,-0.009338630213889296
2.406,-0.005311405537643685
2.408,-0.010245511252508954
2.41,0.03837686490710301
2.412,0.017673319651714828
2.414,-0.018373945103140436
2.416,0.0024050377654851116
2.418,0.007935352361590552
2.42,0.01876612188975112
2.422,0.02754500763963036
2.424,0.016749961757865108
2.426,0.02397995847860188
2.428,0.05859587998259851
2.43,0.0473682014982226
2.432,0.025446691526501895
2.434,0.05782713270670356
2.436,0.035916096291197866
2.438,0.020758732937411047
2.44,0.03570160797132192
2.442,0.06049956810792598
2.444,0.057180878891859126
2.446,0.0024231333281527854
2.448,0.07035362471522669
2.45,0.030822525093122145
2.452,0.004952703464077916
2.454,0.04407153164811774
2.456,0.04815140287050887
2.458,0.045787179126914435
2.46,0.05506858551276054
2.462,0.03574456284829392
2.464,0.04115332520037842
2.466,0.03623470287099001
2.468,0.11221017526701213
2.47,0.035970351882005126
2.472,0.04692001736453119
2.474,0.08415796959291037
2.476,0.07709340271144133
2.478,0.03609150046446525
2.48,0.04480738937134076
2.482,0.06538872411298748
2.484,0.04949569392254465
2.486,0.0524042703091513
2.488,0.09026129869204373
2.49,-0.008724287723458062
2.492,0.017720627522439254
2.494,0.030052388834856742
2.496,0.03457886183741692
2.498,0.04397705460559452
2.5,0.05311603426459411
2.5020000000000002,0.0352227388581508
2.504,0.03927602250864037
2.5060000000000002,0.07451631827162367
2.508,0.06148954289154966
2.5100000000000002,0.08594154152375089
2.512,0.08636582390931698
2.5140000000000002,0.04150915068744378
2.516,0.058781369769180164
2.5180000000000002,0.05374520736161767
2.52,0.050696039836278815
2.5220000000000002,0.08906774539234087
2.524,0.005404925638575201
2.5260000000000002,0.07225853092376552
2.528,0.080417694319711
2.5300000000000002,0.057838035296909805
2.532,0.04964388031638899
2.5340000000000003,0.041828284909522784
2.536,0.041593137681489326
2.5380000000000003,0.02199491708247064
2.54,0.0398564013405961
2.5420000000000003,0.062128147415602894
2.544,0.048553807354000875
2.5460000000000003,0.014602306967630195
2.548,0.05395179331780044
2.5500000000000003,0.031909123814517666
2.552,0.04168143775090671
2.5540000000000003,0.07547811218673826
2.556,0.0486552817856039
2.5580000000000003,0.041539311645025716
2.56,0.0619553132729425
2.562,0.07371103883801298
2.564,0.04427274483710218
2.566,0.07132051477876235
2.568,0.10266882181086026
2.57,0.061614228044513754
2.572,0.029832707424913
2.574,0.04987951458214692
2.576,0.04736868889254322
2.578,0.03818238605432532
2.58,0.038207396042999074
2.582,0.021866698065972152
2.584,0.03941675819097488
2.586,0.03001828321536106
2.588,0.029249452348073406
2.59,0.06639860130178961
2.592,0.04790795597178611
2.594,0.07171003571698006
2.596,0.07001044188892286
2.598,0.05631843525689435
2.6,0.04302725963116449
2.602,0.057623473675929016
2.604,0.07774661101107365
2.606,0.04885342985725934
2.608,0.05147095281024472
2.61,0.06010360045505904
2.612,0.05741597648430781
2.614,0.09801479576412424
2.616,0.017511718518091097
2.618,0.09973666825927024
2.62,0.10748009728157995
2.622,0.07722676659603864
2.624,0.06649694576676332
2.626,0.08176942382140522
2.628,0.08666312897595627
2.63,0.0804430163491226
2.632,0.06993177783111082
2.634,0.08672254451458981
2.636,0.0910612810009418
2.638,0.0858935918830717
2.64,0.12545754060426415
2.642,0.12299567327419463
2.644,0.09609782367379753
2.646,0.09723316068447264
2.648,0.10566153771232059
2.65,0.1329833749136546
2.652,0.14091751838138106
2.654,0.1325876617020017
2.656,0.1035494761396412
2.658,0.14408894157824914
2.66,0.16658904521292336
2.662,0.1168287667098786
2.664,0.11970005481493488
2.666,0.13043965350998316
2.668,0.13901336600747127
2.67,0.17917995190520367
2.672,0.1632959657359478
2.674,0.16366739208984687
2.676,0.12492252603793463
2.678,0.15674468787100163
2.68,0.14615570971922026
2.682,0.14264745267350756
2.684,0.11406981030564789
2.686,0.1240093116935052
2.688,0.13097676927001436
2.69,0.14082915816528632
2.692,0.13139268081394306
2.694,0.13268137647248268
2.696,0.09209892637242688
2.698,0.10989630896435182
2.7,0.11501941044573971
2.702,0.11179377515658652
2.704,0.1016497228728532
2.706,0.08140764270011447
2.708,0.14154432896355226
2.71,0.09153819552866546
2.712,0.1259947898002242
2.714,0.07346443326971526
2.716,0.08175831134613103
2.718,0.10134889281084292
2.72,0.05526028311229747
2.722,0.0717425075071094
2.724,0.023593419267536678
2.726,0.04762295960301961
2.728,0.08069753331354539
2.73,0.033291797462032584
2.732,0.050159403620753135
2.734,0.04479776426448664
2.736,0.007356990166122908
2.738,0.021991734264648635
2.74,0.013362246016634341
2.742,0.010608687102923335
2.744,-0.012051001982794553
2.746,-0.006252737454734744
2.748,-0.02127820854812934
2.75,-0.012807081569909617
2.7520000000000002,0.0011172197124438843
2.754,-0.067420477160481
2.7560000000000002,-0.021644237794922472
2.758,-0.0439348229155346
2.7600000000000002,-0.05048108155283152
2.762,-0.029098917668082556
2.7640000000000002,-0.01621814035834762
2.766,-0.0005962684645843194
2.7680000000000002,0.040423404339808434
2.77,0.00594490648475648
2.7720000000000002,0.0494584103445434
2.774,0.08003228257567752
2.7760000000000002,0.15180485243547848
2.778,0.14129530736350526
2.7800000000000002,0.1654775331640537
2.782,0.19752879440090007
2.7840000000000003,0.2896501163811255
2.786,0.34630856796069787
2.7880000000000003,0.37120007036402586
2.79,0.44134939579691435
2.7920000000000003,0.4570033086945292
2.794,0.5337041828545813
2.7960000000000003,0.5743407722940397
2.798,0.6538191618893291
2.8000000000000003,0.7143554046757613
2.802,0.7481044492214459
2.8040000000000003,0.7867535952002379
2.806,0.8649105316190946
2.8080000000000003,0.861460338818268
2.81,0.967039682916729
2.8120000000000003,0.9643093217226414
2.814,0.964792112127701
2.816,1.0012671202397978
2.818,0.9827693199266672
2.82,1.013755972169056
2.822,1.0070606343630533
2.824,1.0011782834276401
2.826,1.016589160607049
2.828,0.9646978544270826
2.83,0.9427281329880619
2.832,0.9488648403915796
2.834,0.9095801279445972
2.836,0.9130963858981139
2.838,0.8138287171285983
2.84,0.795117710121812
2.842,0.7647783133502307
2.844,0.7497920247437674
2.846,0.6509420635892028
2.848,0.637839929814636
2.85,0.5532672427497661
2.852,0.5182155253968107
2.854,0.47465239019727534
2.856,0.47083902932997457
2.858,0.3915754318614372
2.86,0.3240676984890603
2.862,0.2558411288277852
2.864,0.271037569038874
2.866,0.2558907453297584
2.868,0.18341524189961167
2.87,0.16404053740685862
2.872,0.13824668555234798
2.874,0.08578572452069771
2.876,0.09000501892925361
2.878,0.0852855623845501
2.88,0.05387010027558141
2.882,0.007161447412976063
2.884,0.02419524037388783
2.886,-0.025052743014035324
2.888,0.0002707311341720881
2.89,0.0010113642075963904
2.892,0.00011389425466452538
2.894,-0.001908109331423477
2.896,-0.0015097104629566357
2.898,-0.010794104474323624
2.9,0.019402883177399226
2.902,0.056970552687981846
2.904,-0.004047072924979732
2.906,0.01645180485955562
2.908,0.025113206488680866
2.91,-0.00694466810349245
2.912,0.006303205587904143
2.914,0.03973896663409524
2.916,0.0016287370677166499
2.918,0.026585227899087696
2.92,0.021250896373108008
2.922,0.0018455239623265604
2.924,0.013727709765162835
2.926,0.05553157044727785
2.928,-0.02119754290111091
2.93,0.018584412893427892
2.932,-0.003898913498763599
2.934,0.029465244231226415
2.936,0.03605726839710399
2.938,-0.010627465783663222
2.94,0.0418895958026401
2.942,-0.02650461088123346
2.944,-0.008158161737900356
2.946,0.021176605364719603
2.948,0.017333519735964267
2.95,0.02326245139795638
2.952,0.03433609877764622
2.954,-0.01276300612097033
2.956,-0.01324522857788416
2.958,0.024768775313082365
2.96,0.002774142760969415
2.962,0.07241990356754802
2.964,0.018573023288722512
2.966,0.013937123549019534
2.968,0.010454311309238221
2.97,0.04587600178882074
2.972,0.0004539742953797324
2.974,-0.03831219153103265
2.976,-0.02147117026541822
2.978,-0.01731071431852256
2.98,0.004349668697619502
2.982,-0.0019072107455600858
2.984,0.017894983658411384
2.986,-0.031148014274909024
2.988,-0.03921703648257352
2.99,0.005024934688201719
2.992,0.033536331245485516
2.994,-0.01880437153696173
2.996,-0.02066369147780928
2.998,-0.0032359603993578536
3.0,-0.016604352732738595
3.0020000000000002,0.024215262611421977
3.004,0.005552662895223213
3.0060000000000002,0.017176938805558185
3.008,0.04202270333131355
3.0100000000000002,0.002267325310486228
3.012,0.017088664102740608
3.0140000000000002,-0.01829128881660865
3.016,-0.024627765057007575
3.0180000000000002,-0.023878183285404336
3.02,-0.0053306370711153385
3.0220000000000002,-0.012512434017863536
3.024,0.00110779566819897
3.0260000000000002,-0.02727613306608858
3.028,-0.049855809185161915
3.0300000000000002,0.02054332283172346
3.032,0.025928534727442103
3.0340000000000003,0.010494776521270024
3.036,0.022392186265091027
3.0380000000000003,-0.029795405192725284
3.04,-0.0029945451903655267
3.0420000000000003,-0.06525297041089823
3.044,0.008434021809864363
3.0460000000000003,-0.04709678098227721
3.048,-0.01581732528832895
3.0500000000000003,-0.05246300489308476
3.052,0.013300079440985185
3.0540000000000003,0.006671461412692096
3.056,-0.01138583827073629
3.0580000000000003,-0.051076638083198136
3.06,-0.025241549603899117
3.0620000000000003,-0.05090630746744004
3.064,-0.04478141958857887
3.0660000000000003,-0.014901780597460987
3.068,-0.022055964802335827
3.0700000000000003,-0.009122026840344456
3.072,-0.07029062834358099
3.074,-0.06685058252937695
3.076,-0.03317830604470426
3.078,-0.04440359683097363
3.08,-0.009105541118646698
3.082,-0.05588046793272736
3.084,-0.06306105216947658
3.086,-0.07745870473898323
3.088,-0.03584074565764177
3.09,-0.08060378658328705
3.092,-0.08051651617053379
3.094,-0.05651025209852439
3.096,-0.08149230318393999
3.098,-0.062214699008272256
3.1,-0.058544421452012475
3.102,-0.09473335367041964
3.104,-0.0738438513709288
3.106,-0.0920594741784302
3.108,-0.10426059457002475
3.11,-0.10914959670666155
3.112,-0.09308828386979189
3.114,-0.11514080639258076
3.116,-0.15454892292752942
3.118,-0.12290076850053326
3.12,-0.14122265700956083
3.122,-0.1113141883049063
3.124,-0.1465085200932813
3.126,-0.087953895034541
3.128,-0.1160779837074043
3.13,-0.12292562850700588
3.132,-0.1283443894831268
3.134,-0.12591708621589415
3.136,-0.09729264566462728
3.138,-0.17308175884736754
3.14,-0.13574885500659267
3.142,-0.1742073324045893
3.144,-0.17095031422388526
3.146,-0.16927180571589245
3.148,-0.2010380262431453
3.15,-0.1296803062702898
3.152,-0.1578637667406827
3.154,-0.17117780705282679
3.156,-0.13348238930005094
3.158,-0.1704292690962285
3.16,-0.17572934616658437
3.162,-0.16076635814410264
3.164,-0.16235454181035594
3.166,-0.1568647380493787
3.168,-0.17728045215330399
3.17,-0.15575325859608075
3.172,-0.15660994013721874
3.174,-0.178581621544107
3.176,-0.1672864907194211
3.178,-0.1669794367768389
3.18,-0.2042690724580664
3.182,-0.17099955782974807
3.184,-0.16462729173729207
3.186,-0.1896359040408281
3.188,-0.163440290493101
3.19,-0.15972325491267714
3.192,-0.15882590564376178
3.194,-0.1789293098754988
3.196,-0.16568009619369456
3.198,-0.13792152151538986
3.2,-0.1855631886895818
3.202,-0.17761203585100402
3.204,-0.16223251679111472
3.206,-0.14163001755646276
3.208,-0.16441364875334627
3.21,-0.14602553982474
3.212,-0.12236456595517117
3.214,-0.14321352598319997
3.216,-0.1705976485783015
3.218,-0.14089189999440432
3.22,-0.1265066774783664
3.222,-0.15299394940024505
3.224,-0.10883225799408626
3.226,-0.11686117636301258
3.228,-0.13284738241412036
3.23,-0.13484923537763932
3.232,-0.10214704756536763
3.234,-0.11989849453619808
3.236,-0.11536520394144256
3.238,-0.12290627391813622
3.24,-0.10847401441468754
3.242,-0.11488274515397667
3.244,-0.0762284100147753
3.246,-0.07658471169759637
3.248,-0.09044166652765104
3.25,-0.11672063589260116
3.2520000000000002,-0.0867388877838249
3.254,-0.07113434538926489
3.2560000000000002,-0.07726793261907879
3.258,-0.0757321010537794
3.2600000000000002,-0.08201405125689898
3.262,-0.05502169415429047
3.2640000000000002,-0.05901102519772419
3.266,-0.07316757281704853
3.2680000000000002,-0.06704830719346916
3.27,-0.08118751306660535
3.2720000000000002,-0.07807443191634567
3.274,-0.07315448075051387
3.2760000000000002,-0.07240126731908149
3.278,-0.05612466078271054
3.2800000000000002,-0.06253015455554332
3.282,-0.07561481156928582
3.2840000000000003,-0.03161629825625813
3.286,-0.04202290818483087
3.2880000000000003,-0.05843064080438738
3.29,-0.04499873110230683
3.2920000000000003,-0.0763059883981646
3.294,-0.04263372578013404
3.2960000000000003,-0.06992288327921409
3.298,-0.06266103790801085
3.3000000000000003,-0.07011788477786303
3.302,-0.010224893535090115
3.3040000000000003,-0.02998332644285333
3.306,-0.05236804940656223
3.3080000000000003,-0.03812747146455446
3.31,-0.039748415546667804
3.3120000000000003,-0.06956718402186386
3.314,-0.05953370834771628
3.3160000000000003,-0.04310850169302215
3.318,-0.03177662242985844
3.3200000000000003,-0.04055660438252837
3.322,-0.043730730973730064
3.3240000000000003,-0.0732596854156907
3.326,-0.05332997337020602
3.3280000000000003,-0.022534953761369
3.33,-0.05567096191623176
3.332,-0.060650232862957315
3.334,-0.026584392901014744
3.336,-0.07087025330787693
3.338,-0.05011400375314263
3.34,-0.018818169940396545
3.342,-0.02478117439354721
3.344,-0.04532904769124732
3.346,-0.048879746600880444
3.348,-0.0350892068109395
3.35,-0.032171137905307026
3.352,-0.04534545947350267
3.354,-0.041524897482332276
3.356,-0.030090042111337343
3.358,-0.08886573381210709
3.36,-0.06887170339124382
3.362,-0.08166099773589289
3.364,-0.08233129014506897
3.366,-0.019672478455025254
3.368,-0.06312068848858603
3.37,-0.051365220197444335
3.372,-0.05869842997264526
3.374,-0.052152235200942816
3.376,-0.0317958812743667
3.378,-0.06435164183097718
3.38,-0.07269446583411061
3.382,-0.039582724543049286
3.384,-0.013061494353045018
3.386,-0.06911888852209774
3.388,-0.027038718931059035
3.39,-0.02823716074920534
3.392,-0.03578689644629483
3.394,-0.042429901681775704
3.396,-0.04302252181734074
3.398,-0.056800416084000376
3.4,-0.049325524308464874
3.402,-0.0392901943571263
3.404,-0.062001595498070425
3.406,-0.06647277277937488
3.408,-0.06135824803484738
3.41,-0.06319796189474614
3.412,-0.08951863002475167
3.414,-0.05798753253260055
3.416,-0.07932062106459652
3.418,-0.06625653533730261
3.42,-0.021106547914389085
3.422,-0.0369511058630631
3.424,-0.0635274608001786
3.426,-0.0722481079005521
3.428,-0.040623109152097776
3.43,-0.053563153860572074
3.432,-0.04528222579158211
3.434,-0.005035024528306391
3.436,-0.06966370614907995
3.438,-0.023263852411303857
3.44,-0.06443749385288793
3.442,-0.03425908597967496
3.444,-0.029859215943691134
3.446,-0.02925270411479288
3.448,-0.04796537458847841
3.45,-0.009961073497205767
3.452,-0.04411824391612835
3.454,-0.009722237559034846
3.456,-0.04758056801929578
3.458,-0.035668161743710736
3.46,-0.04873827828471049
3.462,-0.01350422593385468
3.464,-0.030124294705497035
3.466,-0.014931395408323285
3.468,-0.002156089232674442
3.47,-0.027436680027759577
3.472,-0.056543958786529645
3.474,0.0038460077565014815
3.476,-0.015409281003081282
3.478,-0.05338003890343218
3.48,-0.007739090634935102
3.482,-0.04616996848566965
3.484,-0.01065839824669608
3.486,-0.03676898312479273
3.488,-0.02447589939362406
3.49,0.0348022162573528
3.492,0.014868669888005406
3.494,-0.008059847933784142
3.496,-0.007185081275245142
3.498,0.0009203824246146047
3.5,0.031087756727420875
3.5020000000000002,0.02872877063441543
3.504,-0.00645910501944455
3.5060000000000002,0.027135500772232403
3.508,0.01606249469623232
3.5100000000000002,0.05487286168770504
3.512,0.048855713188675695
3.5140000000000002,-0.000536506630214803
3.516,0.03938556137627127
3.5180000000000002,0.018774990305777756
3.52,0.0567827662598267
3.5220000000000002,0.04923573152553255
3.524,0.04538585610886842
3.5260000000000002,0.04155867031606075
3.528,0.05994032119615219
3.5300000000000002,0.08470063094691524
3.532,0.05696154601303071
3.5340000000000003,0.03601447333104245
3.536,0.04979064141150489
3.5380000000000003,0.035726671211107924
3.54,0.089671314688384
3.5420000000000003,0.022059354393731995
3.544,0.04692300133406952
3.5460000000000003,0.03269735383859466
3.548,-0.0008367601959060611
3.5500000000000003,0.05914920475545317
3.552,0.007735503341131794
3.5540000000000003,0.014468538013332075
3.556,0.013974325932198148
3.5580000000000003,0.04512295720558196
3.56,0.02785015693873681
3.5620000000000003,0.0016301810428031582
3.564,0.013066477714166476
3.5660000000000003,0.0009950064112371343
3.568,0.0011286853511779868
3.5700000000000003,0.015320179104518092
3.572,0.04040113437389246
3.5740000000000003,0.00035079271061606854
3.576,-0.02838639080991317
3.5780000000000003,0.02181607893170645
3.58,-0.048284366156223314
3.5820000000000003,-0.03695836433899888
3.584,-0.032037928105466074
3.586,-0.03343065274012443
3.588,-0.03204739996012876
3.59,-0.05960407741216256
3.592,-0.07021965552643009
3.594,-0.08457483884926686
3.596,-0.06977472275333516
3.598,-0.11249248875675205
3.6,-0.08145426132473206
3.602,-0.12105225990547341
3.604,-0.0971696073983443
3.606,-0.11631724941076743
3.608,-0.10430067601006415
3.61,-0.11534719375323974
3.612,-0.14158675560018044
3.614,-0.15257941693896415
3.616,-0.08002826839684413
3.618,-0.12363482495408987
3.62,-0.09537125459563574
3.622,-0.10627193639921795
3.624,-0.05361483190581316
3.626,-0.08272674623794063
3.628,-0.02382583773839286
3.63,-0.014751173506767044
3.632,0.030942856480571684
3.634,0.072581118706706
3.636,0.07731342289255835
3.638,0.12085381034326437
3.64,0.17631433493409412
3.642,0.17971267727639917
3.644,0.2814482075079632
3.646,0.3346379590957124
3.648,0.3569240809619687
3.65,0.4806372281893662
3.652,0.5097796954756891
3.654,0.5479960628228051
3.656,0.5975918185140727
3.658,0.6634622337948224
3.66,0.6713901026343728
3.662,0.739449819174873
3.664,0.776397271388838
3.666,0.8353931119610639
3.668,0.839440579392323
3.67,0.8546262912880535
3.672,0.9125978973909806
3.674,0.9204451526641995
3.676,0.9318389890609234
3.678,0.9606912847089928
3.68,0.9249361105863749
3.682,0.9140541240608563
3.684,0.9200817419966548
3.686,0.8758468866530932
3.688,0.9151366205810613
3.69,0.881893751088731
3.692,0.8490664777349641
3.694,0.8149339899014012
3.696,0.7550221549858972
3.698,0.7201974770002604
3.7,0.6462039763299184
3.702,0.6177727362265412
3.704,0.57803349728755
3.706,0.5193818106305453
3.708,0.49061151365657985
3.71,0.419305963926652
3.712,0.3887146209229647
3.714,0.3372325754902541
3.716,0.3018352378836679
3.718,0.2793722708912759
3.72,0.20313004659763623
3.722,0.19668835706252008
3.724,0.12653292243799572
3.726,0.08157750235238113
3.728,0.08093196333058464
3.73,0.07568285114772408
3.732,0.03008725162801657
3.734,0.007814203643507253
3.736,0.0063180392117434744
3.738,-0.014026041537997087
3.74,-0.03974244073206029
3.742,-0.03283734086380265
3.744,-0.031221797015008542
3.746,-0.013922011056063676
3.748,-0.043676191409965016
3.75,-0.040264725237777854
3.7520000000000002,-0.03646750232155575
3.754,-0.00995196918209353
3.7560000000000002,-0.04343981850958832
3.758,-0.020436727396830535
3.7600000000000002,-0.051570724812983054
3.762,-0.05548018285813148
3.7640000000000002,-0.05355353849009471
3.766,-0.08227428510676943
3.7680000000000002,-0.02759123015729492
3.77,-0.03513040167765856
3.7720000000000002,-0.06629131134577627
3.774,-0.019222890605716164
3.7760000000000002,-0.03115161468019914
3.778,0.00017865080766340038
3.7800000000000002,-0.033432290209342824
3.782,-0.00676320588427713
3.7840000000000003,0.009584000155425595
3.786,-0.03693600363550264
3.7880000000000003,-0.012007107541428893
3.79,-0.06270080184428728
3.7920000000000003,-0.07669959467145689
3.794,-0.0415109324186972
3.7960000000000003,-0.026807229087421537
3.798,-0.033345482004720664
3.8000000000000003,-0.0304223082493865
3.802,-0.045257849578692985
3.8040000000000003,-0.03932634305668708
3.806,-0.03162704291384217
3.8080000000000003,-0.03128829805673673
3.81,-0.0312800696082838
3.8120000000000003,-0.00849363671986264
3.814,-0.04092291502230507
3.8160000000000003,-0.0037472651148938467
3.818,-0.029120700213597705
3.8200000000000003,-0.03904251334904561
3.822,-0.022831500244530626
3.8240000000000003,-0.02468127436071129
3.826,-0.03781155207466614
3.8280000000000003,8.011206299688003e-05
3.83,-0.06007344441604034
3.8320000000000003,-0.03623937419086439
3.834,-0.01985461745383809
3.8360000000000003,-0.050207246390861764
3.838,-0.028359513171599324
3.84,-0.015369854618625143
3.842,-0.017443994930732284
3.844,-0.013500362606316195
3.846,0.004142466351325959
3.848,-0.08092058822903397
3.85,-0.04329053618656278
3.852,-0.000772596844397631
3.854,-0.019599940932889994
3.856,-0.022282127089609742
3.858,-0.0153519918543912
3.86,-0.01638256139585865
3.862,-0.03860246943356675
3.864,0.0010565291819870362
3.866,-0.004688018946598843
3.868,-0.04288673702366157
3.87,-0.02762943531559374
3.872,-0.032156284767630335
3.874,-0.01657470740417089
3.876,-0.059744164900791805
3.878,-0.030099131694286713
3.88,-0.0032594896262821286
3.882,-0.01822095348036351
3.884,-0.02948539357424079
3.886,-0.041926302238288304
3.888,-0.062219897091799196
3.89,-0.004236397774672437
3.892,-0.04089944068537889
3.894,-0.018557094166244736
3.896,-0.04487378342625724
3.898,-0.014819026547004921
3.9,0.005577545923336601
3.902,-0.029546474231560656
3.904,-0.0031516653918158433
3.906,-0.013494890311234513
3.908,-0.03667042512554842
3.91,0.012474506671750027
3.912,-0.0031825753129537514
3.914,-0.0404756536912542
3.916,0.00281402689401445
3.918,0.0004422582137476698
3.92,-0.04829144010556364
3.922,-0.0396310466521394
3.924,-0.018352455293883158
3.926,-0.028207609248850303
3.928,-0.0802501890645348
3.93,-0.04582351298265929
3.932,-0.042912852207641974
3.934,-0.05181237638837398
3.936,-0.046459051883135816
3.938,-0.031193042808502745
3.94,-0.031598413485641234
3.942,-0.10090824061531264
3.944,-0.055051484143098184
3.946,-0.07478016159479434
3.948,-0.08321878737505048
3.95,-0.05627012943005466
3.952,-0.05794224271103402
3.954,-0.07229127044367883
3.956,-0.07682540083618017
3.958,-0.10944843248905994
3.96,-0.07915070816487656
3.962,-0.06901454874670591
3.964,-0.11370472145287655
3.966,-0.0957364094708328
3.968,-0.09489765040879877
3.97,-0.09362181583270154
3.972,-0.1029073459976746
3.974,-0.098895131405026
3.976,-0.09526526417327344
3.978,-0.1457938341856563
3.98,-0.07742798054990196
3.982,-0.15451598086590718
3.984,-0.08980461011544301
3.986,-0.136623033037371
3.988,-0.11457098183742587
3.99,-0.10754576773055083
3.992,-0.12518774066798347
3.994,-0.14844764363320392
3.996,-0.13216627505047984
3.998,-0.13440184280604714
4.0,-0.11924086386563279
4.002,-0.12122840129481349
4.0040000000000004,-0.14898604714596017
4.006,-0.1312295353383165
4.008,-0.144804290165513
4.01,-0.13238219180482372
4.0120000000000005,-0.17577405374585953
4.014,-0.16308423581031015
4.016,-0.12893488818057977
4.018,-0.17238907268950535
4.0200000000000005,-0.11690222811201306
4.022,-0.10758416205604775
4.024,-0.15514802796178728
4.026,-0.1652626288624154
4.0280000000000005,-0.15725589286463876
4.03,-0.16795701742068928
4.032,-0.13145363142622568
4.034,-0.15167679119471
4.0360000000000005,-0.1323221372535481
4.038,-0.13461848505435509
4.04,-0.10471402399009523
4.042,-0.1400678342279579
4.0440000000000005,-0.15927652128142464
4.046,-0.11761628322842924
4.048,-0.12034985076012517
4.05,-0.1548537175758244
4.0520000000000005,-0.10239172652561812
4.054,-0.10614283331805646
4.056,-0.08983793636367288
4.058,-0.12085745764191365
4.0600000000000005,-0.13628696165380325
4.062,-0.13849879467762058
4.064,-0.11227389803045058
4.066,-0.12006374896127268
4.0680000000000005,-0.09832739732312831
4.07,-0.08509083694270331
4.072,-0.10102464255693348
4.074,-0.07817127206746505
4.0760000000000005,-0.1123006157211073
4.078,-0.07587030715468862
4.08,-0.12158698524797433
4.082,-0.11913267620235632
4.0840000000000005,-0.055352527212974324
4.086,-0.09090399935847533
4.088,-0.06950515264643692
4.09,-0.05644257978830586
4.0920000000000005,-0.07341687526992403
4.094,-0.05142815716988214
4.096,-0.07740699359105527
4.098,-0.07019654127578684
4.1,-0.05258865669546024
4.102,-0.04528773421094146
4.104,-0.05144662053698388
4.106,-0.04204030220502006
4.108,-0.020214255648777976
4.11,-0.05660352540355361
4.112,-0.022446997337715657
4.114,-0.04097968854865154
4.116,-0.015216310125711556
4.118,-0.040270583993902556
4.12,0.011909751606116285
4.122,-0.026713993758369223
4.124,0.016222010665737953
4.126,-0.019170214418865017
4.128,-0.036407074521023396
4.13,-0.025525009947210263
4.132,0.006048547022915872
4.134,0.013145871196931815
4.136,-0.00765517914999414
4.138,-0.037766710600600106
4.14,0.029490733761598654
4.142,-0.003191858557286445
4.144,0.015147624834962087
4.146,0.016826130334443135
4.148,0.03509059486340955
4.15,0.008950194163023756
4.152,0.022252029790976548
4.154,0.018052434269206732
4.156,-0.009573040640578026
4.158,0.016599591867402327
4.16,0.037716431796099764
4.162,-0.028617917078437666
4.164,0.01137520098249328
4.166,-0.00868127158378849
4.168,0.03586927089761067
4.17,0.02227968455196253
4.172,0.04522119307200221
4.174,0.04581331990654515
4.176,0.018214415372475073
4.178,0.006077939202314033
4.18,0.01831827571656667
4.182,-0.015178273918729647
4.184,0.054476174911699156
4.186,0.006097582514872026
4.188,0.01839507686116379
4.19,0.034606179618204336
4.192,0.02689406747220432
4.194,0.03969388981549377
4.196,0.038848947121448284
4.198,0.0386615481579063
4.2,0.03789829985805198
4.202,-0.009429663563982008
4.204,-0.005139774716701196
4.206,0.026244450113030594
4.208,0.04852226531153043
4.21,0.03777195874685436
4.212,0.044761018478542726
4.214,0.016268080957302877
4.216,0.023314056140600472
4.218,0.013250857989733763
4.22,0.03800633503901086
4.222,0.025509954039026127
4.224,0.035872468542613105
4.226,0.058079042804005374
4.228,0.0041479371955417
4.23,0.0424425486730426
4.232,0.05818942547373947
4.234,0.019543917111613015
4.236,0.03280354177063042
4.238,0.06563112360630864
4.24,0.046687002425886574
4.242,0.03547707278917159
4.244,0.04630454789231287
4.246,0.04696838029483403
4.248,0.018640268994838057
4.25,-0.010845386692142881
4.252,0.03724785085004941
4.2540000000000004,-0.011546849425482793
4.256,0.033482450422683004
4.258,0.016120872220128743
4.26,0.04546770934917343
4.2620000000000005,0.026133548009100126
4.264,0.02403833605340436
4.266,-0.0062756490797455985
4.268,0.05661882254486973
4.2700000000000005,0.059664391600278775
4.272,0.06926992752176872
4.274,0.039654202679375444
4.276,0.09631908045894211
4.2780000000000005,0.03512867296549533
4.28,0.07119348239621519
4.282,0.017546506899890183
4.284,0.0487857506418239
4.2860000000000005,0.08990625774866527
4.288,0.046907672449039636
4.29,0.0234850992427185
4.292,0.06417523028683027
4.2940000000000005,0.051256640903893536
4.296,0.017959183586235883
4.298,0.05287840584989172
4.3,0.055081011914153086
4.3020000000000005,0.02643311277815542
4.304,0.03967523008408749
4.306,0.02913454868227497
4.308,0.053152893996187375
4.3100000000000005,0.02012610081193555
4.312,0.07280694155691239
4.314,0.0439695334279825
4.316,0.04952518255262866
4.3180000000000005,0.058608006726923415
4.32,0.04684220579125868
4.322,0.0962923054280049
4.324,0.08116241639149582
4.3260000000000005,0.06669417246874712
4.328,0.060425861278684975
4.33,0.05965989523674839
4.332,0.05764336257295713
4.3340000000000005,0.11953359433864617
4.336,0.07283005083668961
4.338,0.04145532344765103
4.34,0.09802486979955227
4.3420000000000005,0.09667321755209507
4.344,0.12307245546363929
4.346,0.09533158471749487
4.348,0.094904051329965
4.3500000000000005,0.116870253639199
4.352,0.10811155525458169
4.354,0.09726067202220473
4.356,0.13572846338208044
4.358,0.12073677150700353
4.36,0.13695619011409493
4.362,0.13078695116966854
4.364,0.12102471599863245
4.366,0.13558246152711223
4.368,0.13393654842446506
4.37,0.1364187491850663
4.372,0.15822065026617757
4.374,0.1736552111554138
4.376,0.16183365381433423
4.378,0.1461413911561574
4.38,0.13189093876062574
4.382,0.1398975344270864
4.384,0.14593167710511035
4.386,0.1409780074082443
4.388,0.16945265437694396
4.39,0.1400194722401748
4.392,0.17282822919343965
4.394,0.17320441663670022
4.396,0.17849119770653044
4.398,0.16893552779090756
4.4,0.13212400683462433
4.402,0.13926849401267416
4.404,0.13601502863423098
4.406,0.12515719576132084
4.408,0.12102864582411368
4.41,0.14979633657336305
4.412,0.117993292921812
4.414,0.1654881194119206
4.416,0.10151297960589906
4.418,0.09739279473549002
4.42,0.14202988587286325
4.422,0.12844275704948102
4.424,0.0781696270549156
4.426,0.09583464254171878
4.428,0.10967624640166836
4.43,0.05937969513071696
4.432,0.08024904442472783
4.434,0.05731744588414824
4.436,0.11572895524578966
4.438,0.07882365913188596
4.44,0.06079156544707455
4.442,0.07022383412500843
4.444,0.05702259373965774
4.446,0.029445021907805183
4.448,0.08390666833021246
4.45,0.062535180493863
4.452,0.037789872750413414
4.454,0.021113515797321777
4.456,-0.03150577151735553
4.458,0.015361709159767353
4.46,-0.01828271426394381
4.462,-0.011066856821219814
4.464,0.001295633366856036
4.466,0.018186583861787065
4.468,-0.03297821420871668
4.47,-0.022300070361996785
4.472,-0.06941508214617895
4.474,-0.010456972988059282
4.476,0.020404962686220676
4.478,-0.02865727805304438
4.48,-0.014534884799949577
4.482,-0.0002133048638026866
4.484,0.055563145793954286
4.486,0.08036756275523163
4.488,0.08023379683202078
4.49,0.11521213101106491
4.492,0.20042679281784315
4.494,0.17965785761769074
4.496,0.22264009409029584
4.498,0.274748884358321
4.5,0.3738926280713516
4.502,0.39473655350897013
4.5040000000000004,0.43244986184079864
4.506,0.5102107476674844
4.508,0.5494872212604903
4.51,0.5662111386184426
4.5120000000000005,0.6614802076807486
4.514,0.740972502846235
4.516,0.7504850708172645
4.518,0.8369174798622536
4.5200000000000005,0.8555193705477608
4.522,0.8821441766777031
4.524,0.9386012614558945
4.526,0.9481480523106424
4.5280000000000005,0.9898394164064711
4.53,1.0226686651481343
4.532,1.034317706906664
4.534,1.0234399091635038
4.5360000000000005,1.0115480129599352
4.538,0.9824367589602792
4.54,1.0294633047393027
4.542,1.0108851432085866
4.5440000000000005,1.0125266982229555
4.546,0.9418038118080617
4.548,0.9379213879406298
4.55,0.8824073379154012
4.5520000000000005,0.8817998443622527
4.554,0.8174335031800115
4.556,0.76430483905571
4.558,0.7513163045985192
4.5600000000000005,0.6794378262866748
4.562,0.6550003845214065
4.564,0.5870128999277963
4.566,0.5416680644890441
4.5680000000000005,0.5012690837350084
4.57,0.4486689854446161
4.572,0.393789017269415
4.574,0.37773928263608925
4.5760000000000005,0.329978748623249
4.578,0.277025705825003
4.58,0.20889500315952111
4.582,0.2036533588165673
4.5840000000000005,0.20055197199017877
4.586,0.1259923313255454
4.588,0.14499480198288575
4.59,0.10948651255700054
4.5920000000000005,0.08712247368396878
4.594,0.05749684925432182
4.596,0.08443261457412361
4.598,0.04491777532266761
4.6000000000000005,0.03615756281889651
4.602,-0.0010938072606844571
4.604,0.05939446020369093
4.606,0.038048484957025994
4.6080000000000005,0.024265291975806427
4.61,0.02486556476669632
4.612,-0.00678216264628647
4.614,0.018857029019365965
4.616,0.02401436679624909
4.618,0.011054900769437374
4.62,0.027068860103802647
4.622,0.04657122374337325
4.624,0.015223870179045213
4.626,0.042593916382848776
4.628,0.03588725649093169
4.63,0.03231089194370292
4.632,0.03868702983158416
4.634,0.033839912093006894
4.636,0.04648150923157986
4.638,0.04227054267327279
4.64,0.049366866976767655
4.642,0.0538715398698764
4.644,0.013707499814373277
4.646,0.08721126911778165
4.648,0.07630376029407308
4.65,0.04585460759195764
4.652,0.025974254135641195
4.654,0.0497504173602411
4.656,0.03939502496811233
4.658,0.04636233702451555
4.66,0.05002655282319318
4.662,0.04518654941717679
4.664,0.07413502221093665
4.666,0.02771688182408558
4.668,0.023720266457668497
4.67,0.0373649604674034
4.672,0.061145583936731265
4.674,0.053656095299141525
4.676,0.04152083038918176
4.678,0.058245729314624475
4.68,0.022705188899435465
4.682,0.046077476507586396
4.684,0.043691344477910156
4.686,0.04416675557615449
4.688,0.048033462368793994
4.69,0.07462339502730773
4.692,0.040109910311623455
4.694,0.06176052275361508
4.696,0.061286623714581316
4.698,0.07343487355544169
4.7,0.04498269866509722
4.702,0.06461749400105567
4.704,-0.0013896567161831548
4.706,0.0445041068685626
4.708,-0.002790088067681859
4.71,0.06407075300855224
4.712,0.052767314752817075
4.714,0.06304839251941458
4.716,0.05431173472708757
4.718,0.0219850030528819
4.72,0.015666986688166004
4.722,-0.0140320949375897
4.724,0.031823806188440815
4.726,0.024145505894230184
4.728,0.012299063532171197
4.73,-0.015510000650414128
4.732,0.052270669687286005
4.734,0.03309556105635061
4.736,0.03896676625151783
4.738,0.0602057471253372
4.74,0.03406817070979478
4.742,0.02750744538791419
4.744,0.0380722573580694
4.746,0.035324884427676465
4.748,0.007954567614265497
4.75,0.02851663723301716
4.752,0.05731124566832707
4.7540000000000004,0.023237337901691392
4.756,-0.003113386811971845
4.758,0.03291056791171244
4.76,-0.0015694499870804735
4.7620000000000005,0.004206329175765437
4.764,0.03721184750014983
4.766,-0.015333562462578137
4.768,-0.02686184565420406
4.7700000000000005,0.020683522558852172
4.772,-0.005457887032077519
4.774,0.026142815473878336
4.776,-0.011243463164925919
4.7780000000000005,0.0074200531463520444
4.78,-0.026029895668531706
4.782,-0.010979099830574032
4.784,0.028420871640153018
4.7860000000000005,0.033516323772169114
4.788,0.0034638789010759535
4.79,-0.0014354238613848574
4.792,-0.030158023263784386
4.7940000000000005,-0.005858216021290517
4.796,0.014996444875235028
4.798,0.012098483704398033
4.8,-0.03591332431314842
4.8020000000000005,-0.04447344702691343
4.804,-0.01732709637855319
4.806,-0.037288659652956156
4.808,-0.034453118658064656
4.8100000000000005,-0.02955149732227612
4.812,-0.03972908903607218
4.814,-0.05078775281342704
4.816,-0.07244917704508438
4.8180000000000005,-0.08185874086919585
4.82,-0.021385605906494784
4.822,-0.06647585820736146
4.824,-0.04809622891161206
4.8260000000000005,-0.05754573059670297
4.828,-0.027957603436223104
4.83,-0.031458701660227836
4.832,-0.09938889195038883
4.8340000000000005,-0.06508965015104855
4.836,-0.05680625888307364
4.838,-0.09950507514997332
4.84,-0.08626657263597726
4.8420000000000005,-0.07616868182772402
4.844,-0.08597733352234573
4.846,-0.1088800575393992
4.848,-0.07178795146049399
4.8500000000000005,-0.09160248771121177
4.852,-0.10419554228267065
4.854,-0.08275899460653126
4.856,-0.10363785612225428
4.8580000000000005,-0.14614781511254205
4.86,-0.15599406281822353
4.862,-0.09252950873540243
4.864,-0.07563487645923461
4.866,-0.1135928523663067
4.868,-0.14308872479827106
4.87,-0.13741548069533477
4.872,-0.11606457010054408
4.874,-0.09980358599240252
4.876,-0.13781657699592292
4.878,-0.1431834324071701
4.88,-0.12734997624468866
4.882,-0.13016668159163985
4.884,-0.13550513524257468
4.886,-0.1399049049529433
4.888,-0.18085957562554994
4.89,-0.12305110542737144
4.892,-0.14841251687324147
4.894,-0.0928850647895279
4.896,-0.13570600731301255
4.898,-0.15734561309972497
4.9,-0.13636296454989125
4.902,-0.11068714625730955
4.904,-0.12133696392135476
4.906,-0.12689368252597474
4.908,-0.1293708623947425
4.91,-0.1363470396819281
4.912,-0.12848366292419297
4.914,-0.13671985171115303
4.916,-0.13778230128097285
4.918,-0.13300085778805357
4.92,-0.1422174810390121
4.922,-0.08018539884536106
4.924,-0.09917536635039215
4.926,-0.12027005936741526
4.928,-0.1456216666569331
4.93,-0.0940825257979241
4.932,-0.12297786703511512
4.934,-0.07866118707197647
4.936,-0.08419029159686256
4.938,-0.09545003940216656
4.94,-0.07563340897925434
4.942,-0.06572522945699269
4.944,-0.053337983029357175
4.946,-0.10257708905228458
4.948,-0.06710208497666484
4.95,-0.05705546494867814
4.952,-0.08080583156542338
4.954,-0.07361001509685536
4.956,-0.0632078875931844
4.958,-0.07082095111713801
4.96,-0.08318419905171306
4.962,-0.06455001140029129
4.964,-0.04555109288965892
4.966,-0.033992076221280774
4.968,-0.0657538381144893
4.97,-0.03700624742569153
4.972,-0.03419865150982292
4.974,-0.021659979813393793
4.976,-0.025800838120841135
4.978,-0.0429580412950853
4.98,-0.048699024870431075
4.982,-0.04837514141421508
4.984,-0.06230224969295207
4.986,-0.02373292988817422
4.988,-0.05820036551642346
4.99,-0.03006808359127668
4.992,-0.04849610169529184
4.994,-0.017395508513199626
4.996,-0.05948488752821657
4.998,-0.01723986992043541
5.0,-0.048274809709939664
5.002,-0.0050409066608809415
5.0040000000000004,-0.037293368903132076
5.006,-0.04056767961524206
5.008,-0.060802060676880175
5.01,-0.015445800051915877
5.0120000000000005,-0.014815931598055712
5.014,-0.02282117846849792
5.016,-0.03270218959937318
5.018,-0.004312079711154003
5.0200000000000005,0.003284598193168887
5.022,-0.023820222565754258
5.024,0.011090465749649567
5.026,-0.003676002410012564
5.0280000000000005,-0.02844449632033896
5.03,-0.01126172981984242
5.032,0.008892505388964574
5.034,-0.007940366067150205
5.0360000000000005,-0.018702322085935745
5.038,-0.03854227753733767
5.04,0.004636208668552548
5.042,-0.0008161918571189895
5.0440000000000005,-0.02310610221631229
5.046,-0.027951841278064528
5.048,-0.042868016165973626
5.05,0.0047180258077734166
5.0520000000000005,0.0014216491471037624
5.054,-0.014532486702221039
5.056,-0.004252205457648281
5.058,-0.03194089688966223
5.0600000000000005,-0.008915572638106724
5.062,-0.01889325434025935
5.064,-0.053970974325095594
5.066,-0.0116244694136603
5.0680000000000005,-0.011879492831304827
5.07,0.02437521222975044
5.072,-0.013691562934063244
5.074,-0.02209269216767101
5.0760000000000005,-0.009745604816426945
5.078,-0.021658170161877092
5.08,-0.05104634895236338
5.082,0.009438859392200976
5.0840000000000005,0.004679454218372623
5.086,-0.015710327208221027
5.088,0.006639487426466902
5.09,-0.008566115622372769
5.0920000000000005,-0.03826444091054469
5.094,0.013319758081240281
5.096,-0.029274155927620428
5.098,0.015213761607184191
5.1000000000000005,-0.047615542880034736
5.102,-0.04934953375538204
5.104,-0.038206131104158526
5.106,0.0016565152932126383
5.1080000000000005,-0.021385624177167495
5.11,-0.030619627829440704
5.112,-0.07531616091481244
5.114,-0.017555731962342138
5.1160000000000005,-0.003758195204489655
5.118,0.014037406403714491
5.12,-0.009374484590669788
5.122,-0.047166110699126046
5.124,-0.001957307800893896
5.126,-0.024772348261395398
5.128,-0.025967102341303835
5.13,-0.004241351235368817
5.132,-0.03642007287772571
5.134,-0.020812843010934005
5.136,-0.04762190471852566
5.138,-0.04932333599779233
5.14,-0.007377236871268547
5.142,-0.025306578167109812
5.144,-0.006134851579270785
5.146,-0.02468122501890365
5.148,-0.04194138195174751
5.15,-0.002537752624294936
5.152,-0.006641609804863703
5.154,-0.03815355259199344
5.156,-0.03269486852188486
5.158,-0.014999047405116952
5.16,-0.024785318349611722
5.162,-0.0006502701358879117
5.164,-0.02405406559627475
5.166,-0.033696688398211924
5.168,-0.00028227967161424325
5.17,-0.0028773445710556806
5.172,-0.03591824784599808
5.174,-0.01576250118007537
5.176,-0.016954511275177712
5.178,-0.0361590115207871
5.18,-0.01318529767028765
5.182,-0.014738686751617176
5.184,-0.02934649019933516
5.186,-0.005343670105079065
5.188,0.007251558735133525
5.19,0.0007554751079912117
5.192,0.0002178334515098232
5.194,-0.0061073322855748485
5.196,0.004554412198516544
5.198,0.005567509187350737
5.2,-0.013824319460951001
5.202,-0.0017433864093057694
5.204,0.025369415148647195
5.206,0.011948246235997835
5.208,0.017210759556063875
5.21,0.05399375153534723
5.212,0.04543317937566018
5.214,0.05316989353372083
5.216,0.03788736298036052
5.218,0.055323411096904196
5.22,0.03603972922644264
5.222,0.029420573680340144
5.224,0.019579548823543277
5.226,0.05874868199326223
5.228,0.04437104824750154
5.23,0.06593178968032397
5.232,0.055546319491293246
5.234,0.07250043665872392
5.236,0.06511581798446234
5.238,0.036238746098134766
5.24,0.04559404962493703
5.242,0.09228893577630645
5.244,0.06715401583601165
5.246,0.0398768320411958
5.248,0.10519186558905733
5.25,0.05447524533929838
5.252,0.07069630093936659
5.2540000000000004,0.07523987329615223
5.256,0.098791170684944
5.258,0.04278998075656246
5.26,0.026484274743991836
5.2620000000000005,0.06743896509468664
5.264,0.06070238053330625
5.266,0.04100896277927065
5.268,0.03275455265732271
5.2700000000000005,0.009323222723383984
5.272,0.07030886593766694
5.274,0.04730169003149082
5.276,0.057154114525997446
5.2780000000000005,-0.009332681846656754
5.28,0.006996864042994079
5.282,0.047810635546642215
5.284,-0.01723170008290087
5.2860000000000005,-0.01757316104888585
5.288,-0.010695940903644056
5.29,-0.04669125679926297
5.292,-0.025730591706349434
5.2940000000000005,-0.020314896053150892
5.296,-0.034745540619652
5.298,-0.02574364438849698
5.3,-0.016090952354155835
5.3020000000000005,-0.07664018375097706
5.304,-0.03366205967697432
5.306,-0.0809446092440182
5.308,-0.09323739768469695
5.3100000000000005,-0.06681036384380329
5.312,-0.06444761784631552
5.314,-0.07832523597695312
5.316,-0.06139033166719199
5.3180000000000005,-0.08945226298494603
5.32,-0.13692234457536054
5.322,-0.11605479259332625
5.324,-0.11762929200633161
5.3260000000000005,-0.1327062392695364
5.328,-0.13334320085830445
5.33,-0.07978058605494395
5.332,-0.11820309035682261
5.3340000000000005,-0.06810934928854001
5.336,-0.0720225806101853
5.338,-0.0997075852705456
5.34,-0.06460270148785398
5.3420000000000005,-0.01850458328315304
5.344,-0.021021022695739668
5.346,0.03648180536264006
5.348,0.04949330665518661
5.3500000000000005,0.09481579095145046
5.352,0.12156898523899104
5.354,0.17446030513999977
5.356,0.25156509638602376
5.3580000000000005,0.24657012394129052
5.36,0.29557253860277
5.362,0.36055949022075046
5.364,0.4167756916726504
5.3660000000000005,0.4783659521741703
5.368,0.5375255835573441
5.37,0.58705377461295
5.372,0.6174776989166718
5.3740000000000006,0.661311033899481
5.376,0.7095570807556925
5.378,0.7660028945205408
5.38,0.8087635012745025
5.382,0.8550899181996265
5.384,0.8916941471422125
5.386,0.8684571525039072
5.388,0.9033118335020368
5.39,0.9246658438762043
5.392,0.9414606955010629
5.394,0.9091791236043175
5.396,0.9201269913421509
5.398,0.9501411721123487
5.4,0.9151258805068291
5.402,0.8817340274042227
5.404,0.8787889704297435
5.406,0.8302047631634291
5.408,0.7835834344728781
5.41,0.746583451877857
5.412,0.727833293065379
5.414,0.6589438656000313
5.416,0.629103764359446
5.418,0.572085054447466
5.42,0.5134018275192255
5.422,0.4909133538609201
5.424,0.41697736065449936
5.426,0.38480262017116806
5.428,0.29351549865585275
5.43,0.27096680924093913
5.432,0.22307122120546138
5.434,0.19070200219401276
5.436,0.17366131641523241
5.438,0.146049308527348
5.44,0.10200428393890076
5.442,0.09092564842472342
5.444,0.03857279942863134
5.446,-0.0005306611429671398
5.448,0.031219133109534666
5.45,-0.025577624276008064
5.452,-0.0022677728633220574
5.454,-0.034734148097848846
5.456,-0.0691583301006999
5.458,-0.04063280842349441
5.46,-0.11307324984874037
5.462,-0.07615560341261303
5.464,-0.05727700153115327
5.466,-0.10925154895665008
5.468,-0.0889331956064889
5.47,-0.09461255681576666
5.472,-0.08182899525185779
5.474,-0.08635530661446736
5.476,-0.07552193536520203
5.478,-0.08172971600631951
5.48,-0.0727334899360129
5.482,-0.09227394800975719
5.484,-0.0702150385414883
5.486,-0.05205428099402522
5.488,-0.012132275632422404
5.49,-0.04605225099222786
5.492,-0.07540504059340915
5.494,-0.07417987033360403
5.496,-0.046330699220480664
5.498,-0.047590575428043784
5.5,-0.07334635408972363
5.502,-0.028280742351025307
5.5040000000000004,-0.05821545733492763
5.506,-0.05507482790357654
5.508,-0.07383731511078984
5.51,-0.028529274369539715
5.5120000000000005,-0.034351452589958496
5.514,-0.00035068961539083037
5.516,-0.06227552630416602
5.518,-0.04182133865321412
5.5200000000000005,-0.04967643298351038
5.522,-0.06392160080207775
5.524,-0.03202379241473284
5.526,-0.06652863872841623
5.5280000000000005,-0.06212547404653565
5.53,-0.04440785764126361
5.532,-0.08132872379850581
5.534,-0.05901936241481962
5.5360000000000005,-0.05381398152554466
5.538,-0.054841568750949206
5.54,-0.03986187235187708
5.542,-0.016817316282076084
5.5440000000000005,-0.06178111138253116
5.546,-0.008815353122417336
5.548,-0.01826354893112132
5.55,-0.05281060075237583
5.5520000000000005,-0.08687586196375881
5.554,-0.040678167536195645
5.556,-0.018706259048263292
5.558,-0.059926839174638716
5.5600000000000005,-0.06354521985022853
5.562,-0.05949528776970907
5.564,-0.07011332052312377
5.566,-0.0655967584837654
5.5680000000000005,-0.055123346669438175
5.57,-0.03983147848082287
5.572,-0.07894635275214776
5.574,-0.03065828500405856
5.5760000000000005,-0.02708094743130276
5.578,-0.050625673600352736
5.58,-0.03820086116072425
5.582,-0.03473266822996306
5.5840000000000005,-0.07006173602462407
5.586,-0.04378199409924546
5.588,-0.048854722377197755
5.59,-0.0474514064332231
5.5920000000000005,-0.06560723711621269
5.594,-0.03867674387717952
5.596,-0.012001876488622679
5.598,-0.048417974624947416
5.6000000000000005,-0.05307464217100628
5.602,-0.052163616444227366
5.604,-0.0702230777162337
5.606,-0.06910417706730314
5.6080000000000005,-0.05311065257009756
5.61,-0.026840457968198193
5.612,-0.1022457240657584
5.614,-0.061873456744693356
5.6160000000000005,-0.07424464744874416
5.618,-0.0445468788643727
5.62,-0.05600492440588473
5.622,-0.06045429440658044
5.6240000000000006,-0.05023776776430551
5.626,-0.12354689316244086
5.628,-0.10015896567031198
5.63,-0.06227599138495825
5.632,-0.06525477064705643
5.634,-0.08616384699271086
5.636,-0.06472104458101037
5.638,-0.026319777827375428
5.64,-0.10099178327044767
5.642,-0.06040668236765763
5.644,-0.05514299902140155
5.646,-0.08617551163694091
5.648,-0.06875772495770073
5.65,-0.10250634706389486
5.652,-0.0713154934514583
5.654,-0.10752116363545716
5.656,-0.06430798679241104
5.658,-0.13534827451240877
5.66,-0.10720244141658614
5.662,-0.09242147233421968
5.664,-0.07187808596125281
5.666,-0.10989245641510967
5.668,-0.06539831728242439
5.67,-0.08550223507102907
5.672,-0.1136401566301066
5.674,-0.10049486761174116
5.676,-0.10805062341719898
5.678,-0.12135914071081802
5.68,-0.09684120717112668
5.682,-0.1410193097580475
5.684,-0.14814291094859935
5.686,-0.09202363785264026
5.688,-0.14679712839980535
5.69,-0.14743424468288707
5.692,-0.13700383027825236
5.694,-0.16439081035624392
5.696,-0.11389912354117573
5.698,-0.15667068825361552
5.7,-0.1841361737700837
5.702,-0.15955707011971093
5.704,-0.14939665931670681
5.706,-0.17430447469593768
5.708,-0.17319069973404924
5.71,-0.12648929150791785
5.712,-0.1455260489744287
5.714,-0.16255496797528435
5.716,-0.17905004308026176
5.718,-0.21790093993013224
5.72,-0.15173868899179419
5.722,-0.18865846975380057
5.724,-0.20168216023329433
5.726,-0.1921834315273489
5.728,-0.1824973836064483
5.73,-0.17985442023351875
5.732,-0.16977303786035097
5.734,-0.19818282356115233
5.736,-0.18778697769982128
5.738,-0.15246811582516295
5.74,-0.1857016660299546
5.742,-0.1492148662339408
5.744,-0.20461189729458962
5.746,-0.16264251654634748
5.748,-0.18813114965043964
5.75,-0.19706877973200604
5.752,-0.2061747713874433
5.7540000000000004,-0.14869878858388894
5.756,-0.20564346963986052
5.758,-0.17313976031173758
5.76,-0.15498696507196455
5.7620000000000005,-0.17853207327540194
5.764,-0.1815311391271956
5.766,-0.18899344389712133
5.768,-0.17816342333872598
5.7700000000000005,-0.16348643599049814
5.772,-0.14885704341340714
5.774,-0.13926646199262258
5.776,-0.13862994021374342
5.7780000000000005,-0.14541865754250408
5.78,-0.12769159078341605
5.782,-0.162618044345261
5.784,-0.12719302955582398
5.7860000000000005,-0.17097705257565435
5.788,-0.13854000866280894
5.79,-0.13831697103886414
5.792,-0.1596559277530425
5.7940000000000005,-0.12659352284609904
5.796,-0.1278031526408883
5.798,-0.09082665662329162
5.8,-0.1066939262730258
5.8020000000000005,-0.10904690329448953
5.804,-0.11601368667285149
5.806,-0.12385072780069627
5.808,-0.1151005816432202
5.8100000000000005,-0.10214609469746022
5.812,-0.09186109701647763
5.814,-0.1153449345752263
5.816,-0.05512343616156284
5.8180000000000005,-0.10851225341500739
5.82,-0.0743693048378995
5.822,-0.07783293105534077
5.824,-0.08288220281648827
5.8260000000000005,-0.06858664343841206
5.828,-0.05497517053003193
5.83,-0.07548743336355859
5.832,-0.07029150318556736
5.8340000000000005,-0.057922067573635216
5.836,-0.028504233832776518
5.838,-0.054517091059225156
5.84,-0.055403243113114384
5.8420000000000005,-0.053690237318535367
5.844,-0.03847693389476399
5.846,-0.04245281150876046
5.848,-0.061118487178486544
5.8500000000000005,-0.032421944087643415
5.852,-0.03504802590019143
5.854,-0.045546172098275856
5.856,-0.07606667978917615
5.8580000000000005,-0.027297857046787985
5.86,-0.027993921836384793
5.862,-0.0739660684021594
5.864,-0.032727233643420554
5.8660000000000005,-0.03353577116960968
5.868,-0.02310040767501719
5.87,-0.04121237418796578
5.872,0.008787786435875388
5.8740000000000006,-0.03554069448806599
5.876,-0.02276268508479952
5.878,-0.03969990394283951
5.88,-0.0016769238720112673
5.882000000000001,-0.02419662929347314
5.884,-0.04496113955401323
5.886,-0.026072185465634022
5.888,-0.0485873634743966
5.89,-0.0005794407613244727
5.892,0.014968627584479597
5.894,-0.016241333660522536
5.896,-0.026132136887520287
5.898,-0.0410778141472305
5.9,-0.027487961788604753
5.902,0.017794367983561134
5.904,-0.016763575556565644
5.906,-0.0178135267110394
5.908,0.006127170571459219
5.91,-0.007081230192145283
5.912,-0.05201050793177646
5.914,-0.023478057350219825
5.916,0.0015055001562348477
5.918,-0.02065594881038952
5.92,-0.03608811103912522
5.922,-0.01151853163733481
5.924,-0.04184335848927885
5.926,-0.034496466793812054
5.928,-0.005306698205228587
5.93,-0.018176366286024856
5.932,0.014153928291022962
5.934,0.005231497119592284
5.936,0.011701811198671008
5.938,0.002778800331912888
5.94,-0.012738868953477032
5.942,-0.013777479373939442
5.944,0.01027864432796231
5.946,-0.04108373682573018
5.948,0.010543899635598902
5.95,0.007657641861772842
5.952,-0.028645166517254912
5.954,0.020189965517458254
5.956,-0.009963083975516528
5.958,0.01677227246260464
5.96,0.0028400454281778953
5.962,-0.016323216140982876
5.964,-0.0065149865997775015
5.966,-0.04457936026862281
5.968,0.01731169047482882
5.97,0.01299851369840512
5.972,-0.028898020453630616
5.974,0.008346259207567335
5.976,-0.005237846919780513
5.978,-0.0016297983759048528
5.98,-0.02109971055191837
5.982,-0.0024682449924092005
5.984,-0.002424556133201763
5.986,-0.03611445489792715
5.988,-0.0006471437562995414
5.99,-0.03341874784906651
5.992,-0.011963677600313548
5.994,0.003725567003487256
5.996,-0.012772047300457591
5.998,-0.011891526101028069
6.0,0.0018658800081449594
6.002,-0.033564475810922846
6.0040000000000004,0.026375466428969586
6.006,-0.006638418984588239
6.008,0.0064567734218712505
6.01,0.012578284455242578
6.0120000000000005,-0.008220681884631905
6.014,-0.0008239592208312135
6.016,0.024172577226954466
6.018,-0.024473161558194314
6.0200000000000005,0.00595440196850686
6.022,-0.008947734840983145
6.024,-0.018885421300195784
6.026,0.0377202117200761
6.0280000000000005,0.0440588204220685
6.03,0.0012370140008554232
6.032,0.04167183810524822
6.034,0.0298907187163858
6.0360000000000005,0.02332894499335832
6.038,-0.005409554337326011
6.04,0.033027006608039026
6.042,0.01849187731685205
6.0440000000000005,0.036212600769678215
6.046,0.019851484679178494
6.048,0.03348239715509649
6.05,0.07415929290651435
6.0520000000000005,0.03393499370324697
6.054,0.04886719596141219
6.056,0.07705076590680753
6.058,0.06212436556112146
6.0600000000000005,0.056883763751265096
6.062,0.04035205748543463
6.064,0.05436070967145969
6.066,0.08117035676433229
6.0680000000000005,0.06866774623057502
6.07,0.0544731414272376
6.072,0.07884684167545122
6.074,0.08308992370510244
6.0760000000000005,0.07543548984112632
6.078,0.12744046643340962
6.08,0.10829293322759419
6.082,0.09798968245958099
6.0840000000000005,0.0734901953770095
6.086,0.14350440577809942
6.088,0.10278702985036597
6.09,0.1398455543335514
6.0920000000000005,0.13429859999359928
6.094,0.11120841799587024
6.096,0.09422862213191803
6.098,0.0905257367089547
6.1000000000000005,0.12811520929365106
6.102,0.08267363573363595
6.104,0.11216944967058631
6.106,0.09881478127878517
6.1080000000000005,0.09186454903916752
6.11,0.09070646687007218
6.112,0.09464467016303064
6.114,0.11594537268280918
6.1160000000000005,0.12241327571902721
6.118,0.0884856035115563
6.12,0.0708282869368504
6.122,0.10700937938033711
6.1240000000000006,0.13577854661742234
6.126,0.09718465482315734
6.128,0.08900934159628755
6.13,0.07000687986174632
6.132000000000001,0.07132485977009642
6.134,0.0599583418072194
6.136,0.06937052206106203
6.138,0.0979637872856004
6.140000000000001,0.08431617533747472
6.142,0.043487043318311526
6.144,0.07781723038551391
6.146,0.06355951856889813
6.148,0.05582644809925364
6.15,0.11487657961058248
6.152,0.04868863088169171
6.154,0.03193775392273571
6.156,0.038031319612216063
6.158,0.06103310086223088
6.16,0.01642165079839351
6.162,0.020946856752439756
6.164,-0.03147447360757151
6.166,0.024680122161229428
6.168,0.003209838514534352
6.17,-0.01763846464856128
6.172,-0.014598483367448324
6.174,-0.02176954247483088
6.176,-0.011168562777155056
6.178,-0.014455187761830648
6.18,-0.040602091373246774
6.182,-0.041832103550950836
6.184,-0.046315834592069505
6.186,-0.04416424161291869
6.188,-0.036496952535145864
6.19,-0.0011604109940209495
6.192,-0.06422450506543222
6.194,0.026531927847553802
6.196,-0.01899462347345377
6.198,0.025612419515484985
6.2,0.01551546186252026
6.202,0.08542263859612856
6.204,0.11481322251260645
6.206,0.13253398601853508
6.208,0.17081388434949507
6.21,0.24602077055002497
6.212,0.2522257104576376
6.214,0.30475488268847334
6.216,0.3720003281603629
6.218,0.4349973669350955
6.22,0.508827743016056
6.222,0.5283800359405771
6.224,0.6038792007843583
6.226,0.6216780185030174
6.228,0.6534079605634795
6.23,0.7394752769796884
6.232,0.784437798004772
6.234,0.8513466035012948
6.236,0.8744723698359835
6.238,0.9535495614898817
6.24,0.9463785332596684
6.242,0.9737191760623137
6.244,1.0348661416488527
6.246,0.9928923666686973
6.248,1.0321727704102308
6.25,1.000822215957054
6.252,1.021519287739753
6.2540000000000004,1.0495817683972752
6.256,0.964378502342375
6.258,0.9611137965048883
6.26,0.940014391096464
6.2620000000000005,0.9486181283365168
6.264,0.8773798212269941
6.266,0.861157088656538
6.268,0.8182559400555358
6.2700000000000005,0.7689177286807203
6.272,0.7448868520468002
6.274,0.7122082002918112
6.276,0.6747979725082743
6.2780000000000005,0.566617341896368
6.28,0.5265887578846306
6.282,0.5189925600935251
6.284,0.43089012094127005
6.2860000000000005,0.38580838418468727
6.288,0.3329951697406839
6.29,0.34336102702824933
6.292,0.2602993852843524
6.2940000000000005,0.24188978659986415
6.296,0.2130198534708954
6.298,0.19397637750983868
6.3,0.1289403336531843
6.3020000000000005,0.09720593621701819
6.304,0.13366768771067963
6.306,0.08931024874103469
6.308,0.07273389926350758
6.3100000000000005,0.04900912127529106
6.312,0.060956103261423734
6.314,0.05630007059977431
6.316,-0.0011228280104085154
6.3180000000000005,0.030774981707915004
6.32,0.041722396746381084
6.322,0.040983263099366674
6.324,0.01959482220218485
6.3260000000000005,0.03810277001669968
6.328,-0.007293110684448375
6.33,0.050107715733564956
6.332,0.04147264668893136
6.3340000000000005,-0.010859357755947398
6.336,-0.0012469408296497016
6.338,0.039477930994355974
6.34,0.044886968532961334
6.3420000000000005,0.024799125391141014
6.344,0.03356252391353773
6.346,0.017178047996908453
6.348,0.07585643983144512
6.3500000000000005,0.043920565516278334
6.352,0.015762613887981086
6.354,0.07850572607702244
6.356,0.0688491640224327
6.3580000000000005,0.039574977773953385
6.36,0.0339925185499962
6.362,-0.0005057213453945107
6.364,0.07014363636186327
6.3660000000000005,0.08537077372772861
6.368,0.04148181660317947
6.37,0.05990069321574534
6.372,0.04638758294240558
6.3740000000000006,0.04280346793995134
6.376,0.00724961579909792
6.378,0.017433522502829386
6.38,0.021180739707681428
6.382000000000001,0.04996176230450759
6.384,0.07354623604467293
6.386,0.04661125686436027
6.388,0.0477189552413241
6.390000000000001,0.06445984004705523
6.392,0.05416540642952488
6.394,0.04317879236758034
6.396,0.06463433894649073
6.398000000000001,0.04655410591969901
6.4,0.03794555709800227
6.402,0.04208160977659157
6.404,0.044880175031259996
6.406,0.04086885053163819
6.408,0.03153730190880752
6.41,0.056849889327375315
6.412,0.04927592136928893
6.414,0.059445609144382336
6.416,0.0574269829178331
6.418,0.04960126144904921
6.42,0.056909508669537034
6.422,0.04880958327271288
6.424,0.04897536012540424
6.426,0.08999790727244035
6.428,0.020281389977191287
6.43,0.04347129736850689
6.432,0.046290739292072926
6.434,0.007292032973707303
6.436,0.03552971613704309
6.438,0.050899586775013654
6.44,0.019799703161642243
6.442,0.03770577773556727
6.444,0.03421799181653123
6.446,0.043071043612331564
6.448,0.06538327276031629
6.45,0.061725329932592034
6.452,0.03348250434498302
6.454,0.04152337878098193
6.456,0.04776647732095409
6.458,0.03976576014396009
6.46,0.06320835473584081
6.462,0.038308746092708956
6.464,0.05024598332468547
6.466,0.03366948646206636
6.468,0.05481631582023998
6.47,0.04480419895572689
6.472,0.033699957905689346
6.474,0.037387117673754675
6.476,0.06649515491660656
6.478,0.021394567236560105
6.48,0.06691029503061349
6.482,0.028017451630159937
6.484,0.018039126545988913
6.486,0.009048910051868794
6.488,0.03803476075701924
6.49,0.03821951951104752
6.492,0.0008904692965000308
6.494,0.020099831488007844
6.496,0.042992436335170504
6.498,0.006575010227598932
6.5,0.03109499031477584
6.502,0.014386422236368143
6.5040000000000004,0.02840650371889457
6.506,-0.029841746107483934
6.508,-0.013819705494018175
6.51,0.006577906181257691
6.5120000000000005,-0.0008611935376515584
6.514,-0.008138311372149772
6.516,0.01744740967564947
6.518,-0.04315381928547153
6.5200000000000005,-0.01886969948572869
6.522,0.009917730975259942
6.524,-0.03771273346233416
6.526,0.01561841233773674
6.5280000000000005,-0.0410380903011581
6.53,-0.05035709441134398
6.532,-0.026973847441528087
6.534,-0.007626051198983574
6.5360000000000005,-0.04716060091640552
6.538,-0.03967371184727245
6.54,-0.009370629168440517
6.542,-0.049434051369491396
6.5440000000000005,-0.016770774920307888
6.546,-0.04141245536352531
6.548,-0.03961739646329311
6.55,-0.05992413831339399
6.5520000000000005,-0.10605172356097685
6.554,-0.05934450079721823
6.556,-0.08636522224173279
6.558,-0.08695619411607745
6.5600000000000005,-0.0673880717669556
6.562,-0.09776377682551271
6.564,-0.06154265755306841
6.566,-0.051403492992619204
6.5680000000000005,-0.1138646503888244
6.57,-0.027761855014752396
6.572,-0.06479877049277193
6.574,-0.11128512462718171
6.5760000000000005,-0.10368926787121388
6.578,-0.10211359405185796
6.58,-0.10935489132735497
6.582,-0.11560231403986959
6.5840000000000005,-0.10552837382566937
6.586,-0.100984176967852
6.588,-0.103855457136563
6.59,-0.13992541539459485
6.5920000000000005,-0.11214269954360723
6.594,-0.08016198307208378
6.596,-0.12215786239013929
6.598,-0.10281106691610495
6.6000000000000005,-0.1387679089837931
6.602,-0.11099369300177689
6.604,-0.0998584027861702
6.606,-0.10632871555954804
6.6080000000000005,-0.08548724944183823
6.61,-0.09366772930311063
6.612,-0.08799679498819364
6.614,-0.09531065606823952
6.6160000000000005,-0.10799254936533698
6.618,-0.11200732930667885
6.62,-0.10098171556494842
6.622,-0.1269108237987586
6.6240000000000006,-0.08976686751318974
6.626,-0.07378626222665939
6.628,-0.051981490793136326
6.63,-0.09763708024014159
6.632000000000001,-0.09878222750859386
6.634,-0.13655265675503334
6.636,-0.08271872413383077
6.638,-0.07390957019715827
6.640000000000001,-0.055759292802927816
6.642,-0.049920801176424764
6.644,-0.08730484611305284
6.646,-0.050262914190408105
6.648000000000001,-0.05513527069209499
6.65,-0.05566840319219238
6.652,-0.05924474078520568
6.654,-0.044980006976853844
6.656000000000001,-0.054427936477332114
6.658,-0.025233618222237325
6.66,-0.04779735384493056
6.662,-0.06565330666468702
6.664,-0.018635367472778303
6.666,-0.046590519888808496
6.668,-0.03656835560034443
6.67,-0.03149214887851995
6.672,-0.045493969785203356
6.674,-0.029045652621409436
6.676,-0.008956408646677856
6.678,-0.03319566998757466
6.68,-0.02571481810901381
6.682,0.0015928023740324343
6.684,0.029959069665009157
6.686,0.023119439957782893
6.688,-0.014204893618141791
6.69,-0.0018549931999937014
6.692,-0.01538609190385826
6.694,-0.005889649798004257
6.696,0.009015786775131526
6.698,-0.0033892655990360766
6.7,-0.008471369158404705
6.702,0.01863766916910519
6.704,0.0003601007956439313
6.706,0.01665631975268771
6.708,0.0008904506136460794
6.71,0.02024488653060543
6.712,0.0010115879004515549
6.714,0.054201332884153006
6.716,0.0049453005164276954
6.718,0.0005299415398039922
6.72,0.02573881156302859
6.722,0.03658547214671644
6.724,0.042074479691803036
6.726,0.03154875846531193
6.728,0.037347405431440675
6.73,0.026338704607596054
6.732,0.04249489071467066
6.734,0.02837737442412617
6.736,0.03347046219366255
6.738,0.058127257101284524
6.74,0.0534792840143087
6.742,0.052493431045242865
6.744,0.04429572681976987
6.746,0.013770464793594147
6.748,0.03688986222607582
6.75,0.036997354836947355
6.752,-0.024534054267834518
6.7540000000000004,0.014848436520822964
6.756,0.024405417633733054
6.758,0.03581862636266184
6.76,0.011053931506659105
6.7620000000000005,0.03957884861345639
6.764,0.03884290975496516
6.766,0.044145826978888913
6.768,0.05022527782469267
6.7700000000000005,0.02710113212616477
6.772,0.012470107365391071
6.774,0.03661939453984743
6.776,0.036249836783430876
6.7780000000000005,-0.0014934773776398484
6.78,0.04682103970559589
6.782,0.020006512457233096
6.784,0.051316678613975
6.7860000000000005,0.06924651191453826
6.788,0.024823536594122154
6.79,0.0403559084782409
6.792,0.05903119428606291
6.7940000000000005,0.05432292268492663
6.796,0.03949429861549891
6.798,0.009366092143200885
6.8,0.050718674912574466
6.8020000000000005,0.06683525132502495
6.804,0.031038294924153997
6.806,0.031110297784047336
6.808,0.013581798602500443
6.8100000000000005,-0.00702344371573208
6.812,0.005402128635049623
6.814,0.044136032098886405
6.816,0.01940538244792188
6.8180000000000005,0.054404158231738095
6.82,0.023529960034968572
6.822,0.019367496739464526
6.824,0.011570341711457864
6.8260000000000005,0.041706005661055506
6.828,0.01434226811699729
6.83,0.015659637385003967
6.832,0.04941106244689774
6.8340000000000005,-0.00023701346282245284
6.836,0.03303831208471491
6.838,0.025331334607276594
6.84,0.050672529842161175
6.8420000000000005,0.01977235883920976
6.844,9.223171347328015e-05
6.846,0.05034756894244358
6.848,0.005822002306660419
6.8500000000000005,0.040729054728581064
6.852,0.037116439604074875
6.854,0.005198540079229415
6.856,0.005291225178647011
6.8580000000000005,0.017239525004115085
6.86,0.007786705652305206
6.862,0.041175175150084134
6.864,0.05578002004358896
6.8660000000000005,0.00769197175602105
6.868,0.014988553955328584
6.87,0.04578134950695615
6.872,0.052249703215504394
6.8740000000000006,0.010907174496695104
6.876,0.05366241655791499
6.878,0.04160315950849808
6.88,0.037113987694536735
6.882000000000001,0.061261265653963906
6.884,0.05701789352901296
6.886,0.021037338050933115
6.888,0.027481465237772368
6.890000000000001,0.01720732534126626
6.892,0.05146334768733882
6.894,0.006794898514766449
6.896,0.04214173690021883
6.898000000000001,0.03175774498287523
6.9,0.06818210349366616
6.902,0.04819800616951837
6.904,0.03811953069809065
6.906000000000001,0.06399921327945748
6.908,0.037149641550478826
6.91,0.0578029358118938
6.912,0.0780461317026099
6.914,0.0800863776746525
6.916,0.08185860086953198
6.918,0.0318119785303945
6.92,0.06275162683067836
6.922,0.07124045897336258
6.924,0.07728760751052664
6.926,0.10076977842219428
6.928,0.0870932469256536
6.93,0.1052709429954553
6.932,0.049829638897014715
6.934,0.09574626486331339
6.936,0.0509653896025335
6.938,0.10633615778440145
6.94,0.12236842330856874
6.942,0.14036275866774955
6.944,0.14205103917121378
6.946,0.11208840235297439
6.948,0.08331066532612826
6.95,0.11709751026204865
6.952,0.1356158690393017
6.954,0.10507571301516139
6.956,0.06242843884503592
6.958,0.10573659215311139
6.96,0.13243265456814973
6.962,0.10549187736401013
6.964,0.08844602523037087
6.966,0.11108255864615041
6.968,0.11650606967246889
6.97,0.07774749265765499
6.972,0.0958637025415615
6.974,0.0432311817910325
6.976,0.08045247060603475
6.978,0.08022386469014943
6.98,0.05351369639602099
6.982,0.10419340439042286
6.984,0.09038208601315154
6.986,0.10845377785700487
6.988,0.09970610985643161
6.99,0.03346333590044716
6.992,0.07528783204773454
6.994,0.06628831121095606
6.996,0.06352803551276558
6.998,0.0658945391014168
7.0,0.03924272894059916
7.002,0.016259210357562816
7.0040000000000004,0.03186872272689268
7.006,0.022740658757882365
7.008,0.0510304280244379
7.01,0.03776278517924009
7.0120000000000005,0.006821136207866681
7.014,-0.028579942824406474
7.016,0.008028735528950694
7.018,0.0013877971397872526
7.0200000000000005,-0.0211511679775754
7.022,-0.03060599433274386
7.024,-0.01894609703558192
7.026,-0.056758778773932185
7.0280000000000005,-0.054426987944497865
7.03,-0.04987351774631129
7.032,-0.08392404701882934
7.034,-0.042065765982594185
7.0360000000000005,-0.11568273002361686
7.038,-0.0951296863494828
7.04,-0.07627093895233047
7.042,-0.11236942269708136
7.0440000000000005,-0.06813136453421823
7.046,-0.07876975316039515
7.048,-0.06288567158578781
7.05,-0.06133122083735769
7.0520000000000005,-0.055083549832407354
7.054,-0.054630989350731095
7.056,-0.009762335119944596
7.058,0.012730994017046438
7.0600000000000005,0.034564030715080914
7.062,0.055780160232776474
7.064,0.13528534015632196
7.066,0.10885359870446522
7.0680000000000005,0.2098527084229814
7.07,0.2516711936656596
7.072,0.2828749802899591
7.074,0.3387200588853173
7.0760000000000005,0.40885492526176803
7.078,0.4098470172331207
7.08,0.5107119306498257
7.082,0.517428851042849
7.0840000000000005,0.5619177901310107
7.086,0.6427310490103437
7.088,0.7294764666363742
7.09,0.7541731307073927
7.0920000000000005,0.8059231087505359
7.094,0.8208113863435749
7.096,0.8664828596303283
7.098,0.8769889829682755
7.1000000000000005,0.9255353577336072
7.102,0.9834243015358254
7.104,0.9572958202246385
7.106,0.9490286466793775
7.1080000000000005,0.9657084965053166
7.11,0.9471041560973659
7.112,0.9731443325918212
7.114,0.8991622110823586
7.1160000000000005,0.9292928818078221
7.118,0.8919032675552251
7.12,0.8446503335867811
7.122,0.7890255931913003
7.1240000000000006,0.7773294739195759
7.126,0.7280951066587712
7.128,0.7029878152691779
7.13,0.6483369531505832
7.132000000000001,0.6006227909562736
7.134,0.5594081795633536
7.136,0.5286290728014514
7.138,0.47883674887775235
7.140000000000001,0.43790121548975824
7.142,0.35146711068019604
7.144,0.32039863103583516
7.146,0.287400005791886
7.148000000000001,0.2682461175570165
7.15,0.18098974371474333
7.152,0.15798473773669736
7.154,0.13214985030454804
7.156000000000001,0.10968279329968035
7.158,0.09197842854042815
7.16,0.04117958002551268
7.162,0.05524901676006125
7.164000000000001,0.048741659911642435
7.166,0.024266826423973997
7.168,-0.011792196454147747
7.17,-0.033616846145919636
7.172,-0.002727377246489664
7.174,-0.03717681716527192
7.176,-0.028504791415703272
7.178,-0.051329813632121836
7.18,-0.04006043398866782
7.182,-0.051929875991720664
7.184,-0.0550262895326825
7.186,-0.0454226552063899
7.188,-0.0539635856026111
7.19,-0.04902689745624839
7.192,-0.024292832986958723
7.194,-0.025917384900945546
7.196,-0.06204538932799259
7.198,-0.03741475906224372
7.2,-0.025164196332191975
7.202,0.0003504662243296675
7.204,-0.0285088009966122
7.206,-0.037274112141645124
7.208,-0.03824764002246119
7.21,-0.04835150491177835
7.212,-0.04429360325986842
7.214,-0.01419803765903938
7.216,-0.05222905171789557
7.218,-0.030166033555018477
7.22,-0.05255611951551928
7.222,-0.055745167124773655
7.224,-0.02872572298870293
7.226,0.006123293095673331
7.228,-0.003454341857087565
7.23,-0.030007368055034744
7.232,-0.05446809821903606
7.234,-0.01791912904133979
7.236,-0.04920083846220608
7.238,-0.056076292088449234
7.24,-0.019438280863609395
7.242,-0.01916482846127373
7.244,-0.007946124220780509
7.246,-0.02310378857904357
7.248,-0.061232804464397085
7.25,0.0015634382531004097
7.252,-0.05827364383484841
7.2540000000000004,-0.025006257411217602
7.256,-0.0561892584088366
7.258,-0.019860842293909484
7.26,-0.05508180765421126
7.2620000000000005,-0.04553528613737056
7.264,-0.05159890596428411
7.266,-0.026378095682695234
7.268,-0.04348678154099333
7.2700000000000005,-0.06070140544073679
7.272,-0.006807788302129574
7.274,-0.05511263892434333
7.276,-0.030408149783308823
7.2780000000000005,-0.031536743393818914
7.28,-0.022827915376123165
7.282,-0.06988545733588128
7.284,-0.034262664789040956
7.2860000000000005,-0.04670094749923702
7.288,-0.03652527674719897
7.29,-0.035175536360569665
7.292,-0.044014301763593645
7.2940000000000005,-0.055443049782672525
7.296,-0.04828185377354667
7.298,-0.021666742233874957
7.3,-0.04855842535273768
7.3020000000000005,-0.03237520846384115
7.304,-0.04709412590895166
7.306,-0.07046417061425209
7.308,-0.0816153067063151
7.3100000000000005,-0.03976381872671152
7.312,-0.06917125574867292
7.314,-0.06346556475353009
7.316,-0.04054386489850447
7.3180000000000005,-0.046013602005292156
7.32,-0.039196778449767204
7.322,-0.04743184650719447
7.324,-0.06336284475634933
7.3260000000000005,-0.09615467940720884
7.328,-0.04901771081600914
7.33,-0.059948818632167285
7.332,-0.03241581220252854
7.3340000000000005,-0.09207639113693139
7.336,-0.0680583566986444
7.338,-0.0536653289500591
7.34,-0.05308087195769568
7.3420000000000005,-0.08603624703913335
7.344,-0.07449933827050655
7.346,-0.06761803559063036
7.348,-0.07502100934506463
7.3500000000000005,-0.04411195169112568
7.352,-0.054558755801574696
7.354,-0.07463024235871302
7.356,-0.08541983832088622
7.3580000000000005,-0.07065896250990236
7.36,-0.08944429535358743
7.362,-0.09977227379852534
7.364,-0.06883668585701935
7.3660000000000005,-0.08451703638181352
7.368,-0.1346024011812667
7.37,-0.0959625867751211
7.372,-0.1046157722663758
7.3740000000000006,-0.10494264154786109
7.376,-0.09471320749720924
7.378,-0.08980481537896134
7.38,-0.08820708348438491
7.382000000000001,-0.1340051746643337
7.384,-0.12217646700137587
7.386,-0.14415895857169295
7.388,-0.13144448310931178
7.390000000000001,-0.09672050856119135
7.392,-0.13391442604637854
7.394,-0.14619411492669818
7.396,-0.1251478598069455
7.398000000000001,-0.13331418427417938
7.4,-0.12770572093176846
7.402,-0.14859215171386186
7.404,-0.13916286924308777
7.406000000000001,-0.17728837296835714
7.408,-0.14545687951274056
7.41,-0.16556952208390643
7.412,-0.153408630526067
7.414000000000001,-0.1477599694400149
7.416,-0.20925326250355064
7.418,-0.13113794620836075
7.42,-0.17372075172634435
7.422000000000001,-0.14745580824884516
7.424,-0.17020037070965943
7.426,-0.17277377393127774
7.428,-0.19705106590089821
7.43,-0.1951078296169315
7.432,-0.16580461121948806
7.434,-0.18927634003274343
7.436,-0.16139919900030208
7.438,-0.23761372687933158
7.44,-0.2063777567803099
7.442,-0.21116373644131725
7.444,-0.22844201041644563
7.446,-0.1950349644474762
7.448,-0.189043188504751
7.45,-0.19891232119188004
7.452,-0.1892190178128879
7.454,-0.19400502267898714
7.456,-0.2179923336490107
7.458,-0.21467550343731193
7.46,-0.20872493948117354
7.462,-0.21857510599381652
7.464,-0.179285576911315
7.466,-0.1732949422754931
7.468,-0.20258336182428135
7.47,-0.22290374822951503
7.472,-0.224587756126035
7.474,-0.1717479870221761
7.476,-0.1848752811198735
7.478,-0.19101616649106654
7.48,-0.20170002227080291
7.482,-0.17099504599430404
7.484,-0.1968981756076895
7.486,-0.19462151722481283
7.488,-0.19212889717333065
7.49,-0.1503105079773758
7.492,-0.19417393864974353
7.494,-0.18063350155606814
7.496,-0.1783574530323514
7.498,-0.16791091005757897
7.5,-0.17379529536925897
7.502,-0.1761439275399544
7.5040000000000004,-0.13395765451713104
7.506,-0.14787329937984298
7.508,-0.13328075737941855
7.51,-0.18963663673621997
7.5120000000000005,-0.1651559586604275
7.514,-0.12411129217335187
7.516,-0.13335224573724347
7.518,-0.1543194254064112
7.5200000000000005,-0.0980807580189936
7.522,-0.11288248964509953
7.524,-0.1317668644489484
7.526,-0.10167175756011596
7.5280000000000005,-0.10712917895592222
7.53,-0.11117616229347033
7.532,-0.12220783553337909
7.534,-0.09533938852018291
7.5360000000000005,-0.13983244010101464
7.538,-0.1261935810103153
7.54,-0.05741750481379597
7.542,-0.07598923872932803
7.5440000000000005,-0.047195241280708095
7.546,-0.09319980242513806
7.548,-0.08551289237607587
7.55,-0.09306754646630583
7.5520000000000005,-0.08775396405507208
7.554,-0.11136751738103531
7.556,-0.0790517297432056
7.558,-0.09756899801855544
7.5600000000000005,-0.06444740210278262
7.562,-0.09865021902333751
7.564,-0.11066561831379396
7.566,-0.07345706466957765
7.5680000000000005,-0.10989852717395639
7.57,-0.09191442053441534
7.572,-0.0933431181799364
7.574,-0.05815783470325625
7.5760000000000005,-0.07752398006388553
7.578,-0.058002864098557094
7.58,-0.04164434218222905
7.582,-0.03900525647961077
7.5840000000000005,-0.03595927991999322
7.586,-0.05914074790242202
7.588,-0.05770130557565005
7.59,-0.07411416962957881
7.5920000000000005,-0.061550978766176774
7.594,-0.04290248801937531
7.596,-0.004240822104211635
7.598,-0.04510446819508617
7.6000000000000005,-0.06254547882841471
7.602,-0.08018362395979937
7.604,-0.08856206402273237
7.606,-0.07134368700626778
7.6080000000000005,-0.03808830578236983
7.61,-0.0709709743555573
7.612,-0.07180374301570874
7.614,-0.009342959380354758
7.6160000000000005,-0.025662951173410532
7.618,-0.03307106205291009
7.62,-0.05516065903372498
7.622,-0.07045400813866476
7.6240000000000006,-0.0389610592346359
7.626,-0.03588641368055903
7.628,-0.04195747930819035
7.63,-0.07869294891411548
7.632000000000001,-0.08911830218995799
7.634,-0.04913455747551009
7.636,-0.0532615799831217
7.638,-0.04890325034306479
7.640000000000001,-0.040962168600005004
7.642,-0.08800959764598094
7.644,-0.022433409271151377
7.646,-0.05384746957488583
7.648000000000001,-0.03047949208214194
7.65,-0.0357148223014116
7.652,-0.03266213172347631
7.654,-0.034411401947798494
7.656000000000001,-0.022036762822430573
7.658,-0.04138825118682454
7.66,-0.06466248886371312
7.662,-0.03544108282898802
7.664000000000001,-0.08236607604206621
7.666,-0.048588819094964646
7.668,-0.03200205776489203
7.67,-0.024887824975916434
7.672000000000001,-0.02682331610098422
7.674,-0.021085371426272776
7.676,-0.0715825913247986
7.678,-0.07915993983820312
7.68,-0.03264205864511491
7.682,-0.0553594486294399
7.684,-0.022388268972336475
7.686,-0.019150549231093012
7.688,-0.04239147031437195
7.69,-0.016535529510426257
7.692,-0.06527548317232626
7.694,-0.024445950245833584
7.696,-0.025341755075760985
7.698,-0.04968698116599509
7.7,-0.016807675183603224
7.702,-0.04985301188446632
7.704,0.01254223688058848
7.706,-0.052907172043865865
7.708,-0.0341676808331319
7.71,-0.07238615057944031
7.712,-0.05697225966956556
7.714,-0.028067193106399643
7.716,-0.04458915612958002
7.718,-0.0371316957056468
7.72,-0.05358352387704965
7.722,-0.030462817647143127
7.724,-0.027809894007634672
7.726,-0.017882374879325622
7.728,-0.04197738205575337
7.73,-0.06902608562226217
7.732,-0.026710501719474276
7.734,-0.01983661780021307
7.736,-0.0352150968498107
7.738,-0.011635720011660558
7.74,-0.016065731687349386
7.742,-0.0042945058056966
7.744,-0.017252488317135422
7.746,-0.0004323149709182482
7.748,-0.006840409616419595
7.75,-0.013006709683924339
7.752,-0.017171414013460888
7.7540000000000004,-0.022268957357562
7.756,-0.013589391105959116
7.758,0.007546361697690785
7.76,-0.03462055524555965
7.7620000000000005,0.02227751105339575
7.764,0.013910931999436285
7.766,0.036686679992211355
7.768,0.012873452866083237
7.7700000000000005,0.02853766322077253
7.772,0.03327954759845561
7.774,-0.0058814904971615095
7.776,0.033418687056881724
7.7780000000000005,0.032989836882020354
7.78,0.04053667142728492
7.782,0.04842464313954478
7.784,0.0022801099577253042
7.7860000000000005,0.044439633178354504
7.788,0.0241285912086599
7.79,0.050600415486531616
7.792,0.023840811440130963
7.7940000000000005,0.03572393778838058
7.796,0.03747181205046134
7.798,0.04312000414907765
7.8,0.05618710719208047
7.8020000000000005,0.08288631829291233
7.804,0.052742012493412344
7.806,0.09447734665164595
7.808,0.07887154814906289
7.8100000000000005,0.08667992857305737
7.812,0.07697593899556832
7.814,0.0872232357108786
7.816,0.052496359479448806
7.8180000000000005,0.058020643912227235
7.82,0.06870224790997853
7.822,0.0624777043590489
7.824,0.05541102497773852
7.8260000000000005,0.056281850203053166
7.828,0.08825401673416451
7.83,0.06382839520138944
7.832,0.09574686392471896
7.8340000000000005,0.06006577497315166
7.836,0.045940139282449596
7.838,0.039198318333671656
7.84,0.037547926333457354
7.8420000000000005,0.06898621828283054
7.844,0.09201042781662966
7.846,0.027617630644804304
7.848,0.08035079201354849
7.8500000000000005,-0.006929537556042406
7.852,0.03410335645465493
7.854,0.0160398321375176
7.856,0.01678121546269762
7.8580000000000005,0.03371712269826206
7.86,-0.009168011775535313
7.862,0.007805006377524484
7.864,0.011027436045901246
7.8660000000000005,-0.01923897952620737
7.868,-0.03464053762506895
7.87,-0.004870073898247394
7.872,0.01206127111292378
7.8740000000000006,-0.008398030672194575
7.876,0.0011836049277675724
7.878,-0.05297397381375757
7.88,-0.06925989939811633
7.882000000000001,-0.0672756452231209
7.884,-0.04469338628875111
7.886,-0.025571701359644206
7.888,-0.07889493281879671
7.890000000000001,-0.09187686497977784
7.892,-0.06455390192133094
7.894,-0.10711784246056093
7.896,-0.09789325121536686
7.898000000000001,-0.09656387484601839
7.9,-0.10881018418643514
7.902,-0.07607396439276966
7.904,-0.12545540292236484
7.906000000000001,-0.09568585833634086
7.908,-0.0730672437937811
7.91,-0.002971159318800917
7.912,-0.04068798726238827
7.914000000000001,0.01210127038949064
7.916,0.03591148117715712
7.918,0.07102167988753941
7.92,0.10122495319332311
7.922000000000001,0.133563817015668
7.924,0.16572485627980074
7.926,0.21977816370371236
7.928,0.27549627335061155
7.930000000000001,0.335002502844605
7.932,0.404411789869114
7.934,0.4266484203508606
7.936,0.4826877838053498
7.938,0.5214070511733532
7.94,0.6067719753779557
7.942,0.6651549421791251
7.944,0.7006641007223223
7.946,0.7335407335339199
7.948,0.7504942441285317
7.95,0.8276924554287882
7.952,0.8415755465494345
7.954,0.922409684693231
7.956,0.9060958518941769
7.958,0.9195818631034695
7.96,0.9924919862881114
7.962,0.9842305176905037
7.964,0.9727138233958331
7.966,1.0082475467568914
7.968,0.9607102610211833
7.97,0.9389412648364858
7.972,0.9514734440367978
7.974,0.8985136151434524
7.976,0.9094314093861342
7.978,0.858525771720792
7.98,0.8255823114478447
7.982,0.7841559397681119
7.984,0.7435542832964759
7.986,0.6900180869413381
7.988,0.7022752622733819
7.99,0.5934365993290344
7.992,0.6135409691330233
7.994,0.5071144970288032
7.996,0.4646311738789311
7.998,0.4247019650416593
8.0,0.3409059261503501
8.002,0.3206413217191707
8.004,0.3344954167246525
8.006,0.2462066440062853
8.008000000000001,0.20476255634390217
8.01,0.15762503469634784
8.012,0.14777667862648772
8.014,0.11474468251464895
8.016,0.12039327095068347
8.018,0.07794896782230529
8.02,0.07388628686082188
8.022,0.02169429356284842
8.024000000000001,0.02332195774378885
8.026,0.020713034455154784
8.028,-0.027211365015392973
8.03,0.026397694544174857
8.032,-0.005261469107951562
8.034,-0.03897451662142255
8.036,0.0002217515465640675
8.038,-0.021048897044772974
8.040000000000001,-0.0663790312549586
8.042,-0.01789829962144111
8.044,-0.010870823065497068
8.046,-0.01322022456251317
8.048,-0.03775983003753722
8.05,-0.0036049761051452165
8.052,0.017145645430672242
8.054,-0.01018795374962345
8.056000000000001,5.653344188525679e-05
8.058,0.030248666803784456
8.06,-0.010109665002807479
8.062,0.019918839670848135
8.064,0.006740373313144729
8.066,0.024026910939413334
8.068,-0.008116777826436102
8.07,0.01151236019333796
8.072000000000001,0.027952889256873163
8.074,0.010329673415055262
8.076,0.002937089925066174
8.078,0.03459816870166669
8.08,0.02881403646965534
8.082,0.033509656474104005
8.084,0.021031765188769296
8.086,0.0005497691809976887
8.088000000000001,-0.0240288523505692
8.09,0.01295354200084312
8.092,0.006681692978452664
8.094,0.02749466397898637
8.096,0.016836783101535538
8.098,0.019430442252083152
8.1,0.013874089087117344
8.102,0.006869445694678129
8.104000000000001,0.011853926427406002
8.106,0.03187524357357607
8.108,0.028617424123667568
8.11,0.005574637737218751
8.112,0.01781769357327353
8.114,0.035009650745414886
8.116,0.013868994636876047
8.118,0.020217851912765768
8.120000000000001,0.005681858407552443
8.122,-0.005587623717958905
8.124,0.0016228803846676907
8.126,0.03753157090754723
8.128,0.0001040806608278693
8.13,0.010142157876442931
8.132,0.04809361597201699
8.134,0.009725985033677616
8.136000000000001,0.02520321607767636
8.138,0.03429470943980866
8.14,0.023262683717948308
8.142,0.03955837182071535
8.144,0.012569380059966927
8.146,0.018634391790846316
8.148,0.020624868596443136
8.15,-0.012831879093581003
8.152000000000001,0.03293958799280456
8.154,0.01942753596982744
8.156,-0.00887312923257368
8.158,0.03001310650284752
8.16,0.025563583180324503
8.162,0.0475679002749224
8.164,0.021576405453957333
8.166,0.03309468795152351
8.168000000000001,0.03138695044068144
8.17,0.04970013656452827
8.172,0.0009069037674333622
8.174,0.030318914917200773
8.176,0.033433697502526935
8.178,0.0017074877028455688
8.18,0.005017450485031995
8.182,0.013464937566350284
8.184000000000001,-0.02063220485829867
8.186,0.0403193266709891
8.188,0.004685366919028518
8.19,0.023915878985215445
8.192,0.0017008740163869471
8.194,-0.014461764341327153
8.196,0.023958702761979773
