time,ecg
0.0,-0.0048817668447419475
0.002,0.009164908108602612
0.004,-0.0055240854378561695
0.006,0.01622946812309357
0.008,0.033129035763254974
0.01,0.01740167419979398
0.012,0.030006272679511118
0.014,0.03843962284714761
0.016,0.012547170257246863
0.018000000000000002,-0.0017206370839372605
0.02,-0.012898443564378064
0.022,0.005360649189692588
0.024,-0.02733017518978554
0.026000000000000002,-0.023582613983860776
0.028,-0.008139719650422947
0.03,0.057240272356267816
0.032,-0.011047254049640028
0.034,0.01908557669264023
0.036000000000000004,0.021891558803677495
0.038,0.021709976863270326
0.04,0.08572192796898626
0.042,0.0450168761262829
0.044,0.018502520951840323
0.046,0.01193401634499958
0.048,0.045701665719110704
0.05,0.02354853901635058
0.052000000000000005,0.06004066426739895
0.054,0.0696446290204793
0.056,0.08778764904399207
0.058,0.038725132818877864
0.06,0.03978160980990107
0.062,0.08391412867215028
0.064,0.06433075166396479
0.066,0.06579286108480224
0.068,0.10371090917361042
0.07,0.05985423576026691
0.07200000000000001,0.07679998974775136
0.074,0.11439239772317125
0.076,0.09610921967934155
0.078,0.0925526954139746
0.08,0.09224183053887694
0.082,0.11041816785148681
0.084,0.07137146133357963
0.08600000000000001,0.104127784613213
0.088,0.1327502896957921
0.09,0.11066094268857393
0.092,0.13899913674671838
0.094,0.10596977252621567
0.096,0.10394600096394158
0.098,0.12936671935361405
0.1,0.08440191775248146
0.10200000000000001,0.09658592696412457
0.10400000000000001,0.08908023975368058
0.106,0.1269626362440738
0.108,0.10009911246633146
0.11,0.11230455967232335
0.112,0.1301127054691465
0.114,0.10578878274108977
0.116,0.1239113151728429
0.11800000000000001,0.09154388998117954
0.12,0.10775216959344297
0.122,0.08959108707726512
0.124,0.07546863442519978
0.126,0.08713568481428881
0.128,0.07181888718061923
0.13,0.09259209452065881
0.132,0.09219828104338595
0.134,0.0680168423048643
0.136,0.06315162971630696
0.138,0.06922928780374996
0.14,0.050989788012195565
0.14200000000000002,0.0714815194183677
0.14400000000000002,0.08365405836001595
0.146,0.05913014053830466
0.148,0.06719893395790054
0.15,0.03951686093867008
0.152,0.03037701491511403
0.154,0.03959059952048188
0.156,0.05749350921752014
0.158,0.03184272916992891
0.16,0.02594639660764577
0.162,0.007522663308281391
0.164,-0.024654644286603147
0.166,0.040011329677899485
0.168,-0.006763651993907931
0.17,0.01409496043822149
0.17200000000000001,-0.032672526985977356
0.17400000000000002,-0.037479760908509574
0.176,-0.014106859873289579
0.178,-0.0035598752977046566
0.18,-0.07722611913546851
0.182,-0.06273130620139347
0.184,-0.07697153265333394
0.186,-0.0467263618389083
0.188,-0.04936365957566071
0.19,-0.07090524318489352
0.192,-0.002527933146621912
0.194,-0.05321866342751537
0.196,-0.02931672727357663
0.198,0.022990397868270653
0.2,0.055326093470134945
0.202,0.06560195031657677
0.20400000000000001,0.15019774688017978
0.20600000000000002,0.11180100259471391
0.20800000000000002,0.19499065849534755
0.21,0.20738809561294197
0.212,0.25937258587057604
0.214,0.318467520004285
0.216,0.3813911834108398
0.218,0.4386322968068054
0.22,0.4764504430658185
0.222,0.5312085632941718
0.224,0.6092846027490413
0.226,0.6384685380826745
0.228,0.697558422938547
0.23,0.7483292007257395
0.232,0.8025181015554801
0.234,0.8341865776151456
0.23600000000000002,0.863736446031318
0.23800000000000002,0.8924300119221
0.24,0.9201234886153998
0.242,0.9974486453502985
0.244,1.0006590685303764
0.246,0.9709567938375129
0.248,1.0092856723130545
0.25,1.0517339523284506
0.252,1.01079177853338
0.254,1.0433419697009432
0.256,0.976096721380701
0.258,0.9455560734093648
0.26,0.942701484471479
0.262,0.8984412700681144
0.264,0.8883443535452072
0.266,0.8338430113660122
0.268,0.7861418656436369
0.27,0.7776895420428801
0.272,0.7726490979391438
0.274,0.6992108547158937
0.276,0.6073036295865059
0.278,0.6145942360538929
0.28,0.570315725513932
0.28200000000000003,0.5192251049036031
0.28400000000000003,0.4633387768819765
0.28600000000000003,0.38992957130004857
0.28800000000000003,0.383850159271906
0.29,0.28799477908603244
0.292,0.30886068547004586
0.294,0.25127270132999463
0.296,0.19588787989817363
0.298,0.1738814700062473
0.3,0.1263009175136402
0.302,0.12975629150603668
0.304,0.06007306043880149
0.306,0.12099841568890571
0.308,0.07091529831738569
0.31,0.06680609920132397
0.312,0.0055218089779632915
0.314,0.022821622025732128
0.316,-0.0028806905093252556
0.318,0.07406238152075752
0.32,0.0028552186355762683
0.322,0.02051336647269906
0.324,0.027505158269501742
0.326,0.03404571062961512
0.328,-0.006830958947041391
0.33,0.04524709038162249
0.332,0.02562249464252188
0.334,0.05384601697258902
0.336,-0.011225435138124785
0.338,0.0072471224600917285
0.34,0.026796144703120087
0.342,0.050000721864260377
0.34400000000000003,0.06098809764721119
0.34600000000000003,0.054980858628528737
0.34800000000000003,0.0867380047319533
0.35000000000000003,0.06960383600245375
0.352,0.05759542962773317
0.354,0.0454704445044344
0.356,0.03352985517280217
0.358,0.02462968106750863
0.36,0.059465905632242674
0.362,0.05934461652497791
0.364,0.065621678504589
0.366,0.042465651380748703
0.368,0.05973897724045298
0.37,0.058799323121734706
0.372,0.05798941467200221
0.374,0.046146007954943814
0.376,0.04273970735837661
0.378,0.051967657371820894
0.38,0.03456491481678174
0.382,0.0585282634653957
0.384,0.04727372712471533
0.386,0.03166969276426846
0.388,0.07860037754316843
0.39,0.054682524949902965
0.392,0.054545600440821164
0.394,0.026313842796874362
0.396,0.0725205167185938
0.398,0.0539640550901398
0.4,0.05156077083607066
0.402,0.06474858001379245
0.404,0.06965227163701737
0.406,0.07276816751883972
0.40800000000000003,0.013983803527551804
0.41000000000000003,0.06403023903916201
0.41200000000000003,0.03678754879954839
0.41400000000000003,0.08136230935467476
0.41600000000000004,0.05845719535924935
0.418,0.04523886035562996
0.42,0.020042065459487283
0.422,0.02740393813611633
0.424,0.023300134735165488
0.426,0.04845978023648916
0.428,0.04024613069319262
0.43,0.07734462696691512
0.432,0.09111806138472964
0.434,0.008954369509069549
0.436,0.04793557703329599
0.438,0.015448941448036553
0.44,0.039956979278198225
0.442,0.04110592591614178
0.444,0.05093923802194247
0.446,0.02269156482757358
0.448,-0.002468323163303963
0.45,0.03703342801816771
0.452,0.05474284586124066
0.454,0.0835130958595849
0.456,0.02904487493200969
0.458,0.03717011169415281
0.46,0.0352237522784839
0.462,0.049915663837815774
0.464,0.06321862354072419
0.466,0.04510652299340434
0.468,0.03406802444301455
0.47000000000000003,0.03615052998865952
0.47200000000000003,-0.0005550038424053244
0.47400000000000003,0.067779820547158
0.47600000000000003,0.009446278252813292
0.47800000000000004,0.07605796654634465
0.48,0.03490870040836265
0.482,0.010533536143906473
0.484,0.06897199874661449
0.486,0.011401440438705068
0.488,0.01974534532282892
0.49,0.04126253125583196
0.492,0.04760436158150095
0.494,0.006405408709103399
0.496,-0.0035131218154685617
0.498,0.017922271534720223
0.5,0.048619941976707694
0.502,0.0010869271349429124
0.504,0.02944018289018898
0.506,0.026104860583854694
0.508,0.0001816085693477007
0.51,-0.007760742383839343
0.512,0.04325487132704779
0.514,-0.01694051311779103
0.516,-0.007271606946194921
0.518,0.02433053146688683
0.52,0.023466666971952037
0.522,-0.002196098021379239
0.524,-0.07603926901010356
0.526,0.017126118754340197
0.528,-0.022813706861242844
0.53,-0.006103955917326431
0.532,-0.03937480459149682
0.534,-0.020469992550909588
0.536,-0.05276091390414887
0.538,-0.0406166082329078
0.54,-0.04133787655589467
0.542,-0.05678481425226635
0.544,-0.029257471435379934
0.546,-0.058687863145199415
0.548,-0.01233523470709083
0.55,-0.05208565563214892
0.552,-0.06676167911324507
0.554,-0.036239789180168916
0.556,-0.0296599042534825
0.558,-0.04331294493906422
0.56,-0.07132614877615107
0.562,-0.05419233424263929
0.5640000000000001,-0.07614335134835504
0.5660000000000001,-0.05017021315578864
0.5680000000000001,-0.06724142615248066
0.5700000000000001,-0.06685082731722848
0.5720000000000001,-0.07077310114176169
0.5740000000000001,-0.12305429144104016
0.5760000000000001,-0.1024872023432768
0.578,-0.05741390490985539
0.58,-0.06301358828822873
0.582,-0.11595860544841585
0.584,-0.136367579341086
0.586,-0.1236251964125028
0.588,-0.06919845962765606
0.59,-0.11453363565182569
0.592,-0.09057243333905327
0.594,-0.12554869847930872
0.596,-0.10686779983928543
0.598,-0.09639927255519817
0.6,-0.0820124492602063
0.602,-0.09653117886464142
0.604,-0.10321430752705657
0.606,-0.09893367387588384
0.608,-0.08073020775843501
0.61,-0.12492978303389028
0.612,-0.08168661011057929
0.614,-0.1125139734262218
0.616,-0.14265284782328497
0.618,-0.09847375920666229
0.62,-0.08006534602354386
0.622,-0.08767428503678767
0.624,-0.09873460485048802
0.626,-0.11562860128593855
0.628,-0.07928542321461696
0.63,-0.0742119843663134
0.632,-0.08720722447278546
0.634,-0.094119655979193
0.636,-0.05496365768345857
0.638,-0.06647095303229461
0.64,-0.045075475001924104
0.642,-0.07141409942336985
0.644,-0.05021289354590243
0.646,-0.03043162604492232
0.648,-0.038038469064114414
0.65,-0.02639126935074952
0.652,-0.06980144448251238
0.654,-0.04321264507357448
0.656,-0.04315593762066055
0.658,-0.022173576376532472
0.66,-0.059156930060861715
0.662,-0.016502574678917428
0.664,-0.05412176260172321
0.666,-0.028170054066635697
0.668,-0.04674622125964506
0.67,-0.050696861912744806
0.672,-0.018511212573125463
0.674,-0.004000681908217493
0.676,-0.03130663614129374
0.678,-0.029668273612625872
0.68,-0.035035725641221496
0.682,-0.04227119488005183
0.684,-0.009094372205603218
0.686,-0.06388195032572072
0.6880000000000001,0.009320080549166943
0.6900000000000001,0.013384044433471291
0.6920000000000001,-0.008359843821986297
0.6940000000000001,-0.020182281878443144
0.6960000000000001,-0.000809766168185691
0.6980000000000001,-0.020614547363312877
0.7000000000000001,-0.02486573860459223
0.7020000000000001,0.002160601418071003
0.704,0.01439398451242592
0.706,0.02500309123246511
0.708,-0.005527830737685747
0.71,0.013861779245806602
0.712,0.011260907443383334
0.714,0.0042319904886076835
0.716,-0.0009761761529798567
0.718,0.01248828922062158
0.72,-0.002809070020386238
0.722,0.07747724557739728
0.724,0.04332015231274141
0.726,0.04655147235005374
0.728,0.05555689467342516
0.73,0.025852352563227807
0.732,0.05735787405424112
0.734,0.04457839852679917
0.736,0.032129398134122036
0.738,0.03594621932747145
0.74,0.023620264275965922
0.742,0.061388279239861065
0.744,0.03202562643707775
0.746,0.06993251233262447
0.748,0.04870634696379073
0.75,0.032470601970073454
0.752,0.04233782469794983
0.754,0.06174440261969895
0.756,0.03435507028431074
0.758,0.02896898881113313
0.76,0.00444986571888426
0.762,0.0076609074971108245
0.764,0.016192490526318368
0.766,0.02064538108308971
0.768,0.04022033255763568
0.77,0.06595252089381068
0.772,0.009848840831399155
0.774,0.036651526503490746
0.776,0.042856778021112193
0.778,0.03183726663234476
0.78,0.0326794136653508
0.782,0.02000882027831063
0.784,0.046967412557288014
0.786,0.04032372884950175
0.788,0.0711542799257632
0.79,0.003952104392247268
0.792,0.026290719362926592
0.794,0.005895331782472823
0.796,0.012158770000689836
0.798,0.049550954966594896
0.8,0.02872483859789902
0.802,0.03309571029429394
0.804,0.03588022056699188
0.806,0.021808539071106182
0.808,0.028759445344069802
0.81,0.013536197959157318
0.812,0.02653258218675587
0.8140000000000001,0.049807084555153786
0.8160000000000001,0.04946501449849194
0.8180000000000001,0.006554445896419015
0.8200000000000001,0.019733257255517608
0.8220000000000001,0.008656763144475018
0.8240000000000001,0.061209771587903965
0.8260000000000001,0.051926431448529806
0.8280000000000001,0.021696466235593268
0.8300000000000001,-0.006656436866171027
0.8320000000000001,0.07429328300644848
0.834,0.02340103613141814
0.836,0.02569045875674466
0.838,0.020215548620511434
0.84,0.01315589290130266
0.842,0.026686909337200516
0.844,0.03402915167744556
0.846,0.062191477606479965
0.848,0.02391232422670649
0.85,0.012734788255645875
0.852,0.02832604476659928
0.854,0.022170773256342487
0.856,0.025000078780717336
0.858,0.03550538146848707
0.86,0.022758345297371405
0.862,0.021396490903477745
0.864,0.04179738914421845
0.866,0.0022557643898027478
0.868,0.046932459979448525
0.87,-0.00902053515096326
0.872,0.04111576152717004
0.874,0.04753971235501537
0.876,0.03805503867578379
0.878,-0.009415755179207203
0.88,0.010529273848091063
0.882,0.010473421062436634
0.884,-0.0018668879534921336
0.886,0.02760973558292058
0.888,0.06391397083471428
0.89,0.0323869644386604
0.892,0.07640112808444809
0.894,0.04766149615006393
0.896,0.02254086232729714
0.898,0.032000758025536334
0.9,0.06517192067343396
0.902,0.030433281367514067
0.904,0.0245742349125734
0.906,0.02425708185061893
0.908,0.060145728020283486
0.91,0.04653017910349258
0.912,0.06047357640879708
0.914,0.05392677792638257
0.916,0.0626076822273534
0.918,0.07006591150148953
0.92,0.10138809099434429
0.922,0.08095160156900677
0.924,0.118708053921004
0.926,0.08807951437190041
0.928,0.07798677789611672
0.93,0.06257741343532441
0.932,0.051151701566505135
0.934,0.1046634295547595
0.936,0.10412602846870005
0.9380000000000001,0.0811078927847048
0.9400000000000001,0.07920900843300527
0.9420000000000001,0.10499426661775824
0.9440000000000001,0.1034660868911755
0.9460000000000001,0.09833839855658023
0.9480000000000001,0.10688193997208897
0.9500000000000001,0.1089656404449218
0.9520000000000001,0.14734282332672766
0.9540000000000001,0.12103511007746752
0.9560000000000001,0.10505825732803543
0.9580000000000001,0.11842495368471627
0.96,0.090232896614679
0.962,0.11582039031541409
0.964,0.09951057773781687
0.966,0.13271964597994862
0.968,0.10232621419458118
0.97,0.09139991891159353
0.972,0.09567451596135824
0.974,0.06308117197879115
0.976,0.06650007876808575
0.978,0.08906818098126823
0.98,0.06756584327545197
0.982,0.07038644578436119
0.984,0.0821982086640163
0.986,0.09542366639823306
0.988,0.07515017148446247
0.99,0.04853805716958927
0.992,0.04934623637351289
0.994,0.05691618839184782
0.996,0.03435821431405462
0.998,0.007029539772301217
1.0,0.049414370831573504
1.002,0.06878116836907447
1.004,0.029997775245283177
1.006,0.030925512596012436
1.008,0.010473175077323305
1.01,0.043054241998911946
1.012,0.04751226832993381
1.014,-0.026594497890274436
1.016,-0.010158316923584557
1.018,-0.04256128945860156
1.02,-0.02536066761385495
1.022,0.0059114084032801835
1.024,-0.01331039196649042
1.026,-0.02862160055809301
1.028,-0.060538324712438724
1.03,-0.04417724282428219
1.032,-0.05739958985071991
1.034,-0.10179899015750044
1.036,-0.08493626425106504
1.038,-0.06870422550183253
1.04,-0.09614693161444493
1.042,-0.10313835543791444
1.044,-0.0696615205114014
1.046,-0.12596523170094695
1.048,-0.07315895023507421
1.05,-0.07562016433367158
1.052,-0.014620286881717508
1.054,-0.01779232947567705
1.056,0.017255264763950142
1.058,0.040605363535743344
1.06,0.04706526463754686
1.062,0.07565819510941091
1.064,0.10538715490819409
1.066,0.17791432129073076
1.068,0.2445023593472544
1.07,0.2784618647102369
1.072,0.2918222637669324
1.074,0.35214049221792554
1.076,0.4331968568175988
1.078,0.4894454326673656
1.08,0.49380366914828994
1.082,0.5829778938547181
1.084,0.6056443517844315
1.086,0.6533542443925101
1.088,0.7053430810822764
1.09,0.7689307033119073
1.092,0.8005281012497389
1.094,0.8408267260196622
1.096,0.8438012226883514
1.098,0.903312463648913
1.1,0.9231162777409598
1.102,0.9143866472586792
1.104,0.9579758847333506
1.106,0.9805293656928205
1.108,0.9285851378390507
1.11,0.9831020218550544
1.112,0.9566368929425387
1.114,0.918084364479114
1.116,0.9080251267109203
1.118,0.8886947084260168
1.12,0.9036071436949733
1.122,0.8439749457741295
1.124,0.7676173807723782
1.1260000000000001,0.7131295990007274
1.1280000000000001,0.7052377995803351
1.1300000000000001,0.6375706186923561
1.1320000000000001,0.6079613493535452
1.1340000000000001,0.5783499838195871
1.1360000000000001,0.508279470173663
1.1380000000000001,0.4605468180980645
1.1400000000000001,0.4369262558896285
1.1420000000000001,0.3726313285508572
1.1440000000000001,0.28201360416554927
1.1460000000000001,0.2458636815821016
1.1480000000000001,0.20931728434217303
1.1500000000000001,0.17616510409130065
1.1520000000000001,0.17288391043497334
1.154,0.1547835171849589
1.156,0.07632609306823825
1.158,0.09073220129256379
1.16,0.04600042656096559
1.162,0.053127739467247526
1.164,0.01158610892090807
1.166,-0.010446914806784835
1.168,-0.031429532491544475
1.17,-0.02925453011900577
1.172,-0.01887386154170579
1.174,-0.06519416968549954
1.176,-0.054226645802560036
1.178,-0.03973221516663042
1.18,-0.06844463249155033
1.182,-0.023941773677501544
1.184,-0.05418558661058691
1.186,-0.059806109634907956
1.188,-0.04627520263656004
1.19,-0.0033606937241592964
1.192,-0.04499281483570733
1.194,-0.06288677447040059
1.196,-0.06091615509940954
1.198,-0.021101347350233224
1.2,-0.030463834990725663
1.202,-0.029229031984678383
1.204,-0.030323422868014233
1.206,-0.04547532040944015
1.208,-0.04882098881151867
1.21,-0.018739496210631035
1.212,-0.0066365910076157525
1.214,-0.055190322518698896
1.216,-0.014488162748339934
1.218,-0.08139045761863019
1.22,-0.039264056566649684
1.222,-0.019536145628946493
1.224,-0.04199248028491473
1.226,-0.0434271789333815
1.228,-0.044478449555149985
1.23,-0.04594886992541649
1.232,-0.07206900349646846
1.234,-0.0396247323938789
1.236,0.0018059063666006178
1.238,-0.038290316465903335
1.24,-0.04315058408891015
1.242,-0.019056005010343956
1.244,-0.03179542242118845
1.246,-0.05150214147500632
1.248,-0.06378671155954402
1.25,-0.018247336441104142
1.252,-0.06123283361554736
1.254,-0.0653150259979013
1.256,-0.04078597083321793
1.258,-0.0853936295533744
1.26,-0.053937183312831004
1.262,-0.05105474627419413
1.264,-0.014460750292491827
1.266,-0.02124332228278485
1.268,-0.0483413279049243
1.27,-0.04211389766978278
1.272,-0.041975187088918516
1.274,-0.06652007941825425
1.276,-0.03532936789794424
1.278,-0.09911035979587686
1.28,-0.007507048620268859
1.282,-0.03849558149658571
1.284,-0.04110348569145072
1.286,-0.04561509680528169
1.288,-0.03769931055188559
1.29,-0.08229810521789542
1.292,-0.019640630236169
1.294,-0.051430215206663736
1.296,-0.04535453660276355
1.298,-0.026988700678430875
1.3,-0.04320068192420512
1.302,-0.05101395803854806
1.304,-0.054896367255754246
1.306,-0.06796222444993993
1.308,-0.068630753900244
1.31,-0.07345491780647503
1.312,-0.06574371012685616
1.314,-0.034126380306855775
1.316,-0.04310928312980433
1.318,-0.05195020186526962
1.32,-0.06142185979023983
1.322,-0.0717506350803386
1.324,-0.06645766276612153
1.326,-0.04342808043546256
1.328,-0.05750409840202128
1.33,-0.03717551226475818
1.332,-0.08191941102913344
1.334,-0.060538416347393105
1.336,-0.05235588551384421
1.338,-0.07214974749422168
1.34,-0.06557018250767506
1.342,-0.018780910379122853
1.344,-0.05165954140910064
1.346,-0.0856252385675717
1.348,-0.058906429999207276
1.35,-0.07232503835466328
1.352,-0.106818174425626
1.354,-0.07741850202611661
1.356,-0.059025894501751455
1.358,-0.04432947314367052
1.36,-0.10332697975083371
1.362,-0.09687651379893941
1.364,-0.07331579886584348
1.366,-0.06380141139022039
1.368,-0.03294721997129904
1.37,-0.11160808606868591
1.372,-0.10173114728165332
1.374,-0.08800243963937562
1.3760000000000001,-0.08837494773189414
1.3780000000000001,-0.09548972323786255
1.3800000000000001,-0.15684057873630608
1.3820000000000001,-0.12400780818603357
1.3840000000000001,-0.1487174599704374
1.3860000000000001,-0.10296507495084445
1.3880000000000001,-0.1222029219977496
1.3900000000000001,-0.13232399272771328
1.3920000000000001,-0.13603883167862968
1.3940000000000001,-0.11006772707104377
1.3960000000000001,-0.12492274705101056
1.3980000000000001,-0.13732773211885543
1.4000000000000001,-0.15085867148999987
1.4020000000000001,-0.13398640265537815
1.4040000000000001,-0.12282297707322798
1.4060000000000001,-0.15044646379469243
1.408,-0.14339869637459687
1.41,-0.14335026818724747
1.412,-0.17006721322507723
1.414,-0.14572263260907514
1.416,-0.13506031462337348
1.418,-0.16866968809645866
1.42,-0.17983320565254507
1.422,-0.13776294128671546
1.424,-0.14872499185395383
1.426,-0.19603575964509004
1.428,-0.1616712411154289
1.43,-0.1830079544625507
1.432,-0.20843764324730946
1.434,-0.14993498315688802
1.436,-0.17109538397562277
1.438,-0.18676657354212597
1.44,-0.1711486427199901
1.442,-0.16959503711864926
1.444,-0.19499234891456638
1.446,-0.18953052489310374
1.448,-0.1995626285748726
1.45,-0.21039992180779887
1.452,-0.1895092665573633
1.454,-0.1968456215898205
1.456,-0.1877331117128399
1.458,-0.19998241847973142
1.46,-0.20465745608725094
1.462,-0.17987905508653598
1.464,-0.2099839683188161
1.466,-0.19273106142221313
1.468,-0.19202441147968613
1.47,-0.16271434079287422
1.472,-0.2076636266078894
1.474,-0.19247594641436425
1.476,-0.19611038958656107
1.478,-0.18986134387190753
1.48,-0.22178507885432666
1.482,-0.19099674229797192
1.484,-0.2127155136880793
1.486,-0.1929915841591801
1.488,-0.1669841513240558
1.49,-0.1774064841542187
1.492,-0.17069454576849605
1.494,-0.1823207645472662
1.496,-0.16530051685436856
1.498,-0.16232138034141466
1.5,-0.15161266732230627
1.502,-0.13019933352872792
1.504,-0.11114269414341371
1.506,-0.18645592246444304
1.508,-0.16115757521441804
1.51,-0.14423859762947802
1.512,-0.15200508258391485
1.514,-0.1301163289760946
1.516,-0.14026182749124977
1.518,-0.1394066129079351
1.52,-0.12506026053174743
1.522,-0.09463876391129236
1.524,-0.11197974932548052
1.526,-0.1514030335265818
1.528,-0.10571362616077357
1.53,-0.0836032277065846
1.532,-0.09422450402104957
1.534,-0.10038854883612944
1.536,-0.08392245476756201
1.538,-0.09882698257784012
1.54,-0.0999508796916784
1.542,-0.14900548927328636
1.544,-0.06876016498335916
1.546,-0.06902245234318763
1.548,-0.11882491422462202
1.55,-0.09626441576937558
1.552,-0.08050200715691438
1.554,-0.07783868140298333
1.556,-0.12093202757323246
1.558,-0.07512452383881804
1.56,-0.052554664693910486
1.562,-0.050235491300949495
1.564,-0.10256947266869774
1.566,-0.058327345488893456
1.568,-0.046969118128552034
1.57,-0.044511906416709345
1.572,-0.018633582330045733
1.574,-0.09798074753907547
1.576,-0.08125992883389996
1.578,-0.0760113947653473
1.58,-0.07213047512131107
1.582,-0.034042418126586954
1.584,-0.06329747646027904
1.586,-0.05223141726173883
1.588,-0.04645995445243774
1.59,-0.09834137322090675
1.592,-0.0646088786393096
1.594,-0.061372028675601424
1.596,-0.06005033479373312
1.598,-0.06512940075611383
1.6,-0.07185480790907102
1.602,-0.046672927211172846
1.604,-0.07249809642385838
1.606,-0.060320331069520186
1.608,-0.0482155187114325
1.61,-0.04277346696154386
1.612,-0.05537816633452198
1.614,-0.07473136379315416
1.616,-0.040828765351910955
1.618,-0.08136498096953741
1.62,-0.03287904932164788
1.622,-0.015672450956726446
1.624,-0.010411810568328071
1.6260000000000001,-0.04208832188059538
1.6280000000000001,-0.05396674776199381
1.6300000000000001,-0.04804292942473976
1.6320000000000001,-0.03229431631083573
1.6340000000000001,-0.04240805624774644
1.6360000000000001,-0.07457799612346315
1.6380000000000001,-0.03246863780373368
1.6400000000000001,-0.02960795885229767
1.6420000000000001,-0.03452664825423537
1.6440000000000001,-0.058666785633032514
1.6460000000000001,-0.054433621359010184
1.6480000000000001,-0.06468176316352382
1.6500000000000001,-0.03220582246080087
1.6520000000000001,-0.038076798770016955
1.6540000000000001,-0.0488984979864035
1.6560000000000001,-0.05178233721332144
1.6580000000000001,-0.036788763087736896
1.6600000000000001,-0.044023676664334266
1.6620000000000001,-0.039267838324609276
1.6640000000000001,-0.06481140781211181
1.666,-0.01699225538225036
1.668,-0.03549564435481643
1.67,-0.02484003009494257
1.672,-0.02538383649558432
1.674,-0.044898099703038895
1.676,-0.06305806170066793
1.678,-0.060503818444336756
1.68,-0.05747081124694232
1.682,-0.02882309703203019
1.684,-0.04096305043467977
1.686,-0.05718114804500803
1.688,-0.021743355181482495
1.69,-0.04070093873064753
1.692,-0.06405981406305672
1.694,-0.009565677412642713
1.696,-0.032343848700386396
1.698,-0.019486580410021142
1.7,-0.046247918708183976
1.702,-0.013375626380363406
1.704,-0.033313506364874304
1.706,-0.02637303707581517
1.708,-0.014388537208885522
1.71,-0.02920771808305971
1.712,-0.04971358858506634
1.714,-0.03884067041817279
1.716,-0.04840116204909289
1.718,-0.02780221486211811
1.72,-0.025904736876002907
1.722,-0.040579251323572686
1.724,-0.06888341179889108
1.726,-0.015519852259488372
1.728,-0.0506491354397546
1.73,-0.04023449931286875
1.732,-0.02373818531674387
1.734,-0.04898973338408062
1.736,-0.009151251413821993
1.738,-0.03856514539587715
1.74,-0.008620524364841014
1.742,-0.02465171514019017
1.744,-0.015210283958823304
1.746,-0.03369034181334579
1.748,-0.05048638063842484
1.75,0.007661329843746369
1.752,-0.04616394634596341
1.754,-0.009794822658853116
1.756,-0.01658410513649073
1.758,-0.02120643953531048
1.76,-0.015756779292210345
1.762,-0.002058135196208899
1.764,0.008310665968105053
1.766,0.04483120308634846
1.768,0.03473571131344146
1.77,-0.00039005817719354324
1.772,0.025191890542398523
1.774,0.03587399320059445
1.776,0.036023282413453664
1.778,0.053239149204221806
1.78,0.0448880496094523
1.782,0.049995362708243826
1.784,0.06807324217920055
1.786,0.042940439651408494
1.788,0.03181656676224679
1.79,0.040791186684957605
1.792,0.04379222953915511
1.794,0.03050161816857401
1.796,0.06173856443692596
1.798,0.05778074929753483
1.8,0.0649059669191908
1.802,0.07161431960746367
1.804,0.0570157500628736
1.806,0.08090448857771529
1.808,0.07207185300253478
1.81,0.08917998652536255
1.812,0.05349795398268886
1.814,0.10696927709462195
1.816,0.06224988233626509
1.818,0.11405200520234043
1.82,0.09041162874319758
1.822,0.07747324705478281
1.824,0.060559286282803396
1.826,0.03238718532039052
1.828,0.040415665963083124
1.83,0.05121854555476961
1.832,0.06470332676663827
1.834,0.07017935749653978
1.836,0.051581168084733175
1.838,0.08662925496846952
1.84,0.030052541040992864
1.842,0.017150764406747607
1.844,0.0419213829063276
1.846,0.06064637893901476
1.848,0.041544215319203465
1.85,0.0283311446584061
1.852,0.056194359408566236
1.854,0.006931931049790549
1.856,-0.029363491210982924
1.858,0.026817367605011286
1.86,0.02182271358181068
1.862,0.028627335107972655
1.864,0.016126579466989616
1.866,0.007209277736773333
1.868,-0.01474970437429685
1.87,-0.004318626987642385
1.872,-0.011587209052377026
1.874,0.0011505820682023724
1.8760000000000001,-0.009676434315904191
1.8780000000000001,-0.0032158909632233855
1.8800000000000001,-0.03447607836198456
1.8820000000000001,-0.04675673185799932
1.8840000000000001,-0.018182273371248715
1.8860000000000001,-0.07845343626900297
1.8880000000000001,-0.053646209043733656
1.8900000000000001,-0.09977795168016484
1.8920000000000001,-0.1049943388475097
1.8940000000000001,-0.061169254965104725
1.8960000000000001,-0.06685260808490764
1.8980000000000001,-0.09459762848250079
1.9000000000000001,-0.05277298826902042
1.9020000000000001,-0.0798899477128991
1.9040000000000001,-0.08470642085856953
1.9060000000000001,-0.08803898801530641
1.9080000000000001,-0.06291443797666457
1.9100000000000001,-0.05254784823549839
1.9120000000000001,-0.06941391098868502
1.9140000000000001,0.007265375580821697
1.9160000000000001,0.017257303114341236
1.9180000000000001,0.0532622114775264
1.92,0.07314775398197237
1.922,0.16654862870296017
1.924,0.20922833368782867
1.926,0.22831562304461542
1.928,0.2883299770904081
1.93,0.2984847468593045
1.932,0.3772923670860939
1.934,0.4278412744766516
1.936,0.46925484693555886
1.938,0.534779229754272
1.94,0.5454862266417396
1.942,0.624646645080234
1.944,0.6739554308574554
1.946,0.7530609385794674
1.948,0.7501926095890431
1.95,0.8501240463612951
1.952,0.8591293465316867
1.954,0.8740091011819543
1.956,0.8859074963723975
1.958,0.9080930585766229
1.96,0.9639125107038621
1.962,0.9691278952628635
1.964,1.0132059557296036
1.966,0.9844241623462183
1.968,0.9638470528650649
1.97,0.9604938922418658
1.972,0.9180767281408752
1.974,0.9586688915654586
1.976,0.936926814427715
1.978,0.9029836059527114
1.98,0.8198524269939108
1.982,0.7595696001771106
1.984,0.7022191672612053
1.986,0.6872544914990762
1.988,0.6579547840331209
1.99,0.6207956796584214
1.992,0.5594782121764662
1.994,0.5130438367477652
1.996,0.4344262074021719
1.998,0.43350687423988654
2.0,0.35224639451862033
2.0020000000000002,0.3661202665716222
2.004,0.28424481002161783
2.0060000000000002,0.23219764885392394
2.008,0.19630285758804278
2.0100000000000002,0.2095418403311064
2.012,0.15012917296316286
2.0140000000000002,0.14597421123204773
2.016,0.0651358799271392
2.0180000000000002,0.08363667678961169
2.02,0.0704455193517639
2.0220000000000002,0.030006375135455923
2.024,0.06458909966776248
2.0260000000000002,-0.007778361517968266
2.028,0.021659803429910994
2.0300000000000002,0.010969723814914305
2.032,-0.035677583236628466
2.0340000000000003,-0.04685928927006474
2.036,-0.026102830675650196
2.0380000000000003,0.010215555477403018
2.04,0.0008535450829613815
2.0420000000000003,-0.006252954160069437
2.044,0.009294630113894975
2.0460000000000003,0.002651855724419949
2.048,0.0006590795324157434
2.05,0.014784122789818444
2.052,-0.03270207863762465
2.054,0.029828730367695892
2.056,-0.025242230091125972
2.058,-0.008524193640457093
2.06,-0.015847147645170125
2.062,0.02726193066017149
2.064,-0.01626803998231879
2.066,-0.03374153857741018
2.068,-0.0063315005907541196
2.07,0.00015527090207139143
2.072,-0.015912696474865685
2.074,-0.00482399373795939
2.076,-0.043377079033582816
2.078,-0.0067712721948315615
2.08,-0.01928486244851435
2.082,0.018713271576252855
2.084,0.007772265548348703
2.086,-0.002523367928526435
2.088,0.016998671142464467
2.09,0.015347928415058503
2.092,0.0124107232101082
2.094,0.029552659806878503
2.096,0.00028452885890204013
2.098,-0.03454417387143858
2.1,-0.008662846303151613
2.102,0.04202327764677584
2.104,0.02459769423560348
2.106,-0.017142302344969912
2.108,0.01642902650705353
2.11,0.0253163827254066
2.112,0.0512390383940911
2.114,0.0004044946959799165
2.116,0.014657838449641948
2.118,0.059724093419532935
2.12,0.03620678148988946
2.122,0.023071341406462022
2.124,0.01932163417380788
2.126,0.0156481187489566
2.128,-0.007274494057908718
2.13,0.010370924306650148
2.132,-0.004680177791242083
2.134,0.03464990386851404
2.136,0.00858540890182618
2.138,0.03767232418351722
2.14,0.028640513941059115
2.142,0.008681581001995054
2.144,-0.0035929908616112276
2.146,0.02121215323729489
2.148,0.021239758736003356
2.15,0.041912353612813494
2.152,0.009633052401789296
2.154,0.045851483991114085
2.156,0.038497250276582816
2.158,-0.009981659450601938
2.16,0.017303927245371283
2.162,0.01817150895677367
2.164,0.030135721568406285
2.166,-0.028930834226907686
2.168,0.03817323760765409
2.17,0.03157944371044051
2.172,0.018913089047631296
2.174,0.05257889716093708
2.176,0.0809267810692152
2.178,0.03374288674670839
2.18,0.0018582919380025643
2.182,0.008184517840438362
2.184,0.01251771693161455
2.186,0.03978285001532948
2.188,0.017296275555003553
2.19,0.0273620988475705
2.192,-0.007738135939458175
2.194,0.022053839038948062
2.196,0.036269016073895294
2.198,0.03248260242493677
2.2,0.005235652453260714
2.202,0.041238906156279814
2.204,-0.01696551621706198
2.206,0.015134674785723369
2.208,-0.01716860408500109
2.21,0.0018216628047971126
2.212,-0.01146454029688998
2.214,0.004985434134867361
2.216,0.018868872070782
2.218,-0.036848991472232265
2.22,-0.01139136069346236
2.222,0.024021968376484036
2.224,-0.02382049288498512
2.226,0.016563567946884378
2.228,0.018916810788762783
2.23,-0.06602492956266844
2.232,-0.02985579515792347
2.234,-0.004156551831066516
2.236,-0.043657580032908816
2.238,-0.027816982556145398
2.24,-0.029828481024811532
2.242,0.010549004140278179
2.244,-0.046702860649826664
2.246,-0.0031661338633603153
2.248,-0.05257938167829663
2.25,-0.07569932283665035
2.2520000000000002,-0.06554054697781034
2.254,-0.05548459701166953
2.2560000000000002,-0.07962253621818441
2.258,-0.10165337194380888
2.2600000000000002,-0.083319095016831
2.262,-0.09562093885702655
2.2640000000000002,-0.07115300601632622
2.266,-0.05121336574457231
2.2680000000000002,-0.08522743843484265
2.27,-0.07023685126197202
2.2720000000000002,-0.1040590209867292
2.274,-0.08667878926010447
2.2760000000000002,-0.07196456560920153
2.278,-0.10202273266810923
2.2800000000000002,-0.10559231781122494
2.282,-0.06039770086687639
2.2840000000000003,-0.07577137622876723
2.286,-0.09254452030409188
2.2880000000000003,-0.08512232993513613
2.29,-0.060211073169373436
2.2920000000000003,-0.09311691195265714
2.294,-0.07315532297931912
2.2960000000000003,-0.08415683389289032
2.298,-0.12969263957878518
2.3000000000000003,-0.10413264183155654
2.302,-0.09780683343061378
2.3040000000000003,-0.11539343778006352
2.306,-0.1486947008013748
2.308,-0.09453908437882386
2.31,-0.11883315622352683
2.312,-0.12176490182314673
2.314,-0.07929279946081483
2.316,-0.13645987555187006
2.318,-0.0952121284790751
2.32,-0.10722325787384698
2.322,-0.09033888605384258
2.324,-0.12836861762579566
2.326,-0.11273718145416896
2.328,-0.12268404176212712
2.33,-0.10319522348650359
2.332,-0.13364595161156506
2.334,-0.07712166263921379
2.336,-0.08456401579107056
2.338,-0.10286521374277476
2.34,-0.09807057655541455
2.342,-0.0998227255671597
2.344,-0.09904891688053408
2.346,-0.07192352230786894
2.348,-0.09334764653590767
2.35,-0.05781003054615218
2.352,-0.08905731016011098
2.354,-0.06655059771595301
2.356,-0.08664298884267888
2.358,-0.0888414322786305
2.36,-0.06552829420319098
2.362,-0.030510064014527785
2.364,-0.10951755807120145
2.366,-0.07505086296771919
2.368,-0.058828162560301725
2.37,-0.06890333950748359
2.372,-0.026244056616289854
2.374,-0.011283789961314045
2.376,-0.04861035714635049
2.378,-0.01844872432989947
2.38,-0.01735981330002366
2.382,0.003594206257312396
2.384,-0.03366334254134786
2.386,-0.026161112363014737
2.388,-0.016559359730201798
2.39,-0.028703340009957043
2.392,-0.022813966212653608
2.394,-0.014494256824461586
2.396,-0.03407146495058708
2.398,-0.0063006682850935
2.4,-0.011382170605795487
2.402,0.029197960289818928
2.404,0.04217401507826297
2.406,0.021179532444104615
2.408,0.004732069855938319
2.41,-0.004169889354215438
2.412,-0.005101911269929725
2.414,0.045352614339593506
2.416,0.04134196014763221
2.418,0.019410111560635556
2.42,0.029127716134135766
2.422,0.05849505971360921
2.424,0.02713855137644507
2.426,0.032291764397250344
2.428,0.02309738976008588
2.43,0.052337124776927785
2.432,0.008866618210269572
2.434,0.04835601613545687
2.436,0.011352083631915314
2.438,0.041023514814385445
2.44,0.025931706737531583
2.442,0.07084229695851538
2.444,0.046408045969369115
2.446,0.036070256411565305
2.448,0.0390309264921695
2.45,0.025497889649840733
2.452,0.019563801570579437
2.454,0.06648172383827808
2.456,0.04471267120202349
2.458,0.025933959465027485
2.46,0.036676923064069396
2.462,0.0654285478534468
2.464,0.08659705268285413
2.466,0.06386695995123762
2.468,0.04926535642463452
2.47,0.016691741017659148
2.472,0.051369036282799596
2.474,0.031255497902131675
2.476,0.03761847921389184
2.478,0.07336153809843697
2.48,0.057739449473755436
2.482,0.01585867601918871
2.484,0.08391899684440302
2.486,0.06851870487776361
2.488,0.05663887070713446
2.49,0.05231333068117569
2.492,0.050503991988193844
2.494,0.04702167804441853
2.496,0.04258113396058695
2.498,0.0395793471502837
2.5,0.03059645441179489
2.5020000000000002,0.014361801636038308
2.504,0.038358425232969486
2.5060000000000002,0.04635176750855536
2.508,0.038008673806421756
2.5100000000000002,0.0627531316426458
2.512,0.06162969522899242
2.5140000000000002,0.06092250696283835
2.516,0.03246018395638795
2.5180000000000002,0.04150795197863243
2.52,0.03469260686122056
2.5220000000000002,0.031629842032738144
2.524,0.06726303355725204
2.5260000000000002,0.05414422489882035
2.528,0.04481156506528125
2.5300000000000002,0.04594274240271629
2.532,0.02333391573290667
2.5340000000000003,0.05688633156482952
2.536,0.03780352959739197
2.5380000000000003,0.044609694402104556
2.54,0.052165675268788715
2.5420000000000003,0.03949812405067737
2.544,0.018813645414878847
2.5460000000000003,0.07664918528227813
2.548,0.03358681226722973
2.5500000000000003,0.06385058213085973
2.552,0.05931612983697697
2.5540000000000003,0.05887527576182827
2.556,0.05160872006145211
2.5580000000000003,0.04639045710070957
2.56,0.04487571524517582
2.562,0.033279870104641826
2.564,0.05991198014420074
2.566,0.046074235131580946
2.568,0.048062640762467156
2.57,0.04338130663533151
2.572,0.06772880219412171
2.574,0.0770870924106101
2.576,0.03430279151632475
2.578,0.03375796503425821
2.58,0.09124065961783799
2.582,0.02228939360046533
2.584,0.06946124632207834
2.586,0.026594281998867805
2.588,0.04622342067513039
2.59,0.04390868583658587
2.592,0.09875059510413424
2.594,0.049330829395375204
2.596,0.042256194611847195
2.598,0.08063060246846535
2.6,0.04999154628421136
2.602,0.02469950317641679
2.604,0.06457173584783034
2.606,0.025848841823968488
2.608,0.0608899842785809
2.61,0.04274378824119927
2.612,0.050771862535616726
2.614,0.08017375374645189
2.616,0.05862481792860939
2.618,0.09004245579827849
2.62,0.06506985599983686
2.622,0.055129512177346005
2.624,0.07697063006593605
2.626,0.07027580133030166
2.628,0.07779252851026294
2.63,0.06247998366907204
2.632,0.11676364421810019
2.634,0.09880023663860679
2.636,0.10624334679165424
2.638,0.14455783291187535
2.64,0.1004089846353625
2.642,0.07937876158954994
2.644,0.10800361785574777
2.646,0.12831270020347701
2.648,0.11999387209344045
2.65,0.11369369299547477
2.652,0.12417980594114317
2.654,0.11160945794460603
2.656,0.14408985889076031
2.658,0.12638706559190266
2.66,0.17302373541303895
2.662,0.11657273490773526
2.664,0.13838649976557624
2.666,0.15826938808910568
2.668,0.14030500538228718
2.67,0.12852916767087155
2.672,0.11795848113644507
2.674,0.15430135072694348
2.676,0.09223978351372189
2.678,0.13904564266774055
2.68,0.14314475457371512
2.682,0.11836045727543146
2.684,0.1250425770726044
2.686,0.10467579064591181
2.688,0.11866442601305549
2.69,0.15331375685533588
2.692,0.1419989294897881
2.694,0.13330926148187972
2.696,0.11580023461624717
2.698,0.11018016906291132
2.7,0.11786937630703238
2.702,0.10169470623880003
2.704,0.06969245090068418
2.706,0.10173802162022777
2.708,0.10743967208210192
2.71,0.09265043555626994
2.712,0.09401181171209103
2.714,0.08194043648697917
2.716,0.08839979678659475
2.718,0.0336224239951456
2.72,0.06151521217072782
2.722,0.06488744995941556
2.724,0.06100201178972227
2.726,0.07809935655729612
2.728,0.03543255625218605
2.73,0.048372172636022615
2.732,0.03292300133157004
2.734,0.005374377117239223
2.736,0.036846802857416566
2.738,-0.017868775569390278
2.74,0.0064733273193961285
2.742,-0.014293908272888456
2.744,-0.021858765340558216
2.746,0.003921843487139552
2.748,-0.025250054175183397
2.75,-0.053330691826094
2.7520000000000002,-0.0336589742599342
2.754,-0.06443606956108013
2.7560000000000002,-0.052746190901545045
2.758,-0.0789580061038326
2.7600000000000002,0.011751393558414772
2.762,-0.027836727840793517
2.7640000000000002,-0.023253306690444772
2.766,-0.019968075497030637
2.7680000000000002,-0.007402744814464339
2.77,-0.010990117887799283
2.7720000000000002,0.08013574031187787
2.774,0.07800641742168873
2.7760000000000002,0.14061653068326563
2.778,0.1725166320447998
2.7800000000000002,0.1835826178001916
2.782,0.21146261617598897
2.7840000000000003,0.2985239476227419
2.786,0.33831228644261135
2.7880000000000003,0.36498390635836714
2.79,0.4408776973310165
2.7920000000000003,0.45111007769204736
2.794,0.5274406015187297
2.7960000000000003,0.5946064739337317
2.798,0.6882224024705395
2.8000000000000003,0.7309209383623663
2.802,0.7146281063101303
2.8040000000000003,0.8104818223956436
2.806,0.8188899835239516
2.8080000000000003,0.8585534133999163
2.81,0.8837123568865751
2.8120000000000003,0.9521170695788953
2.814,0.9428481293144222
2.816,0.9641868942446855
2.818,0.984008430754575
2.82,1.0124648946019095
2.822,1.0083356714144598
2.824,1.040474801344779
2.826,1.0057898049100202
2.828,0.9542430701489285
2.83,0.9427515321178399
2.832,0.9282044373053162
2.834,0.9044195588404669
2.836,0.826204142228031
2.838,0.8461907649615664
2.84,0.7714477389675608
2.842,0.73212751017452
2.844,0.7077468138002301
2.846,0.6491525923907585
2.848,0.5877087419494063
2.85,0.5464078358826249
2.852,0.4770568557578106
2.854,0.4322398505887837
2.856,0.4258326484100916
2.858,0.36334825836527734
2.86,0.3290649707363984
2.862,0.2706189801119579
2.864,0.2625072497063756
2.866,0.2055087377433306
2.868,0.1706818527840355
2.87,0.1284737808617635
2.872,0.09490436055519953
2.874,0.06258330952524771
2.876,0.04935203690890881
2.878,0.06634278767619528
2.88,0.05309756802731652
2.882,0.006819788399577283
2.884,0.03644156935155915
2.886,-0.047745747723557386
2.888,-0.010105822104269689
2.89,0.008360507936157455
2.892,-0.013217553691833323
2.894,-0.0008862965598836897
2.896,-0.014263174200388421
2.898,-0.012673807520448364
2.9,0.00043269398895994307
2.902,-0.03509832945412629
2.904,-0.006175011318195469
2.906,0.014425780400523404
2.908,-0.011935363588782132
2.91,-0.00801911603284714
2.912,-0.0003673926885564664
2.914,-0.00803841241769277
2.916,0.05436360599937563
2.918,0.012808337308718908
2.92,0.04220073242823355
2.922,0.01664534654952906
2.924,-0.0021139161659730205
2.926,-0.007200697854833016
2.928,0.042045116425814516
2.93,0.013253442260751381
2.932,0.02789380262550776
2.934,0.025511719159857588
2.936,0.03255904330787386
2.938,0.012010114879299066
2.94,-0.0031509032574297997
2.942,-0.01796047335268969
2.944,-0.00820390198077502
2.946,0.07166228631530734
2.948,-0.0012567959340113325
2.95,0.019813832707684432
2.952,0.041203179049930004
2.954,-0.010144478807967807
2.956,-0.010207887800517788
2.958,0.020683252383287568
2.96,0.006639549566067153
2.962,0.00899455790003905
2.964,-0.010226720449675654
2.966,0.006816864519785093
2.968,0.02305601118705003
2.97,-0.011321485356912383
2.972,0.01026132718702532
2.974,-0.001168489007957096
2.976,0.01921101731816297
2.978,0.0013535657197518548
2.98,0.006678680627276325
2.982,0.03097106886664871
2.984,0.01676433900289844
2.986,-0.02563444560737903
2.988,0.05122979265561155
2.99,-0.008286746865673754
2.992,-0.01767583178046953
2.994,0.0010941008928904469
2.996,0.0010901359059801898
2.998,0.014932275984103401
3.0,0.0070690389271543825
3.0020000000000002,-0.002430415587798122
3.004,0.029589929622105663
3.0060000000000002,-0.014442678261867412
3.008,0.002461038119957993
3.0100000000000002,-0.015979482400429387
3.012,-0.016070938388279502
3.0140000000000002,-0.010995353966236316
3.016,-0.0038735055326308936
3.0180000000000002,-0.019133783996457043
3.02,-0.008923591597197283
3.0220000000000002,-0.022982002991654284
3.024,-0.008012726131562732
3.0260000000000002,-0.027768156125535504
3.028,-0.01083097570312961
3.0300000000000002,-0.024698942357100087
3.032,0.026548001719356146
3.0340000000000003,-0.024402961944937532
3.036,0.004280635596905334
3.0380000000000003,-0.001460778211341553
3.04,0.002020195096302607
3.0420000000000003,-0.05578074739381266
3.044,-0.018030289606214254
3.0460000000000003,0.022381980574709113
3.048,-0.023123289736484653
3.0500000000000003,-0.06446914102986029
3.052,-0.025577753117585943
3.0540000000000003,-0.018438864107111957
3.056,-0.07543369407992864
3.0580000000000003,-0.0355772699757124
3.06,-0.0422609077156743
3.0620000000000003,-0.04310795880616046
3.064,0.009008824711962255
3.0660000000000003,-0.04024599007868296
3.068,-0.027806329403451513
3.0700000000000003,-0.04430062678189356
3.072,-0.02797424331079175
3.074,-0.04626525251237077
3.076,-0.006272371264941304
3.078,-0.03614360563442467
3.08,-0.02402653656873514
3.082,-0.031232008152370608
3.084,-0.06280286736957022
3.086,-0.05484107395414676
3.088,-0.028130695012103205
3.09,-0.06065557511572972
3.092,-0.07999914023328077
3.094,-0.10405706293886137
3.096,-0.042112513553403716
3.098,-0.08224752550079639
3.1,-0.08250274946558271
3.102,-0.10219989168495416
3.104,-0.09612796188350992
3.106,-0.08276630804978435
3.108,-0.07030775227945346
3.11,-0.07697686603828988
3.112,-0.07658315522778145
3.114,-0.06612444661813961
3.116,-0.08017525938030255
3.118,-0.12202708065705604
3.12,-0.13170309097973767
3.122,-0.1453094724630539
3.124,-0.11484478751160843
3.126,-0.10671169735436384
3.128,-0.13379183266474465
3.13,-0.14948287044885297
3.132,-0.14027774698349788
3.134,-0.15434972654325238
3.136,-0.1713286322370414
3.138,-0.15587550976986989
3.14,-0.16732684701171113
3.142,-0.12244778643855184
3.144,-0.14320364972528934
3.146,-0.16102325711354507
3.148,-0.14081567959765467
3.15,-0.17518802733824534
3.152,-0.1300054767306111
3.154,-0.14770202012478978
3.156,-0.1822762357279398
3.158,-0.23408481005937126
3.16,-0.1580984886989773
3.162,-0.15389496857806095
3.164,-0.17310594259557843
3.166,-0.19310772517895028
3.168,-0.16874371461177512
3.17,-0.1458283625042926
3.172,-0.16779072701834763
3.174,-0.16659460984048893
3.176,-0.1789403919694965
3.178,-0.18993578097588532
3.18,-0.19941931129169105
3.182,-0.17222894717696707
3.184,-0.19078583243662167
3.186,-0.2033566472150488
3.188,-0.15923985842057808
3.19,-0.18149225208306002
3.192,-0.17817547233672412
3.194,-0.173925327072714
3.196,-0.13229703382548552
3.198,-0.12011076692734327
3.2,-0.15905382495267398
3.202,-0.15794891205490083
3.204,-0.169626515759451
3.206,-0.135893218398548
3.208,-0.17752662073442577
3.21,-0.14215627175119583
3.212,-0.15883505026049416
3.214,-0.1557550267622242
3.216,-0.10552659096265207
3.218,-0.12820405616512637
3.22,-0.15489937009540206
3.222,-0.09662805312202631
3.224,-0.16407129568383566
3.226,-0.1368926393946328
3.228,-0.11361790559672882
3.23,-0.1133297145194659
3.232,-0.1046579265753487
3.234,-0.11700209152283564
3.236,-0.12383198226491707
3.238,-0.0930372541461637
3.24,-0.11309197695837994
3.242,-0.09041708523873278
3.244,-0.10967725957573235
3.246,-0.11845673195212345
3.248,-0.09021131932134308
3.25,-0.07590598255426398
3.2520000000000002,-0.06898921362173549
3.254,-0.07525056365062376
3.2560000000000002,-0.0636734067927669
3.258,-0.08090245571686286
3.2600000000000002,-0.08945230815273866
3.262,-0.07549051865462217
3.2640000000000002,-0.09334662270156838
3.266,-0.03839839162310271
3.2680000000000002,-0.09993821539959322
3.27,-0.08659590870269532
3.2720000000000002,-0.08120928479154754
3.274,-0.07080745319995942
3.2760000000000002,-0.08831506366293876
3.278,-0.06600296815242229
3.2800000000000002,-0.03738543868626567
3.282,-0.058285712725184236
3.2840000000000003,-0.057071291745806774
3.286,-0.05499039833766615
3.2880000000000003,-0.09315457044729884
3.29,-0.033053154068589406
3.2920000000000003,-0.053574610155875016
3.294,-0.025527268286189113
3.2960000000000003,-0.03503855826796757
3.298,-0.07590068165739189
3.3000000000000003,-0.041690821207385334
3.302,-0.05085439399844071
3.3040000000000003,-0.07302408391390666
3.306,-0.034058206853094616
3.3080000000000003,-0.06127740681480587
3.31,-0.06379536392181215
3.3120000000000003,-0.059707271546827215
3.314,-0.05736077983214034
3.3160000000000003,-0.040760034913900796
3.318,-0.04079530595601931
3.3200000000000003,-0.025951737665310098
3.322,-0.03748695062948547
3.3240000000000003,-0.04364602377358648
3.326,-0.06998229598669174
3.3280000000000003,-0.06116785169528771
3.33,-0.06627184300023602
3.332,-0.03283541720310232
3.334,-0.02914722522814455
3.336,-0.046684374855208585
3.338,-0.06230030467257592
3.34,-0.033505083992102634
3.342,-0.036196582988953056
3.344,-0.03608338745646137
3.346,-0.059640720308336316
3.348,-0.05973051636596715
3.35,-0.050378335964536426
3.352,-0.0501121981430168
3.354,-0.05370892453661733
3.356,-0.051051451614608216
3.358,-0.05284248727716122
3.36,-0.030755190043021453
3.362,-0.04247082449163224
3.364,-0.024436041772094103
3.366,-0.05812231614013872
3.368,-0.04927963107637958
3.37,-0.04844816187784517
3.372,-0.020219683840144543
3.374,-0.005937158066823267
3.376,-0.017161611115470387
3.378,-0.05064090565755219
3.38,-0.05988474686768135
3.382,-0.03751607699013264
3.384,-0.02807585203526811
3.386,-0.008433347848818431
3.388,-0.05125220269878472
3.39,-0.025239671611401115
3.392,-0.03678038882539953
3.394,-0.0580113453863102
3.396,-0.028851160548843936
3.398,-0.0317903230078889
3.4,-0.025261389574170155
3.402,-0.04439639480950425
3.404,-0.07907363810263524
3.406,-0.07259379448399465
3.408,-0.08077665132989961
3.41,-0.030964781269836806
3.412,-0.02841802684396708
3.414,-0.051064468438552696
3.416,-0.019130594294628808
3.418,-0.03179497244287803
3.42,-0.0920462099610886
3.422,-0.0768001439275875
3.424,-0.06647774900005239
3.426,-0.031588056084764525
3.428,-0.08008091818862194
3.43,-0.05863072680167739
3.432,-0.044131435492471886
3.434,-0.04493037661838029
3.436,-0.040885023492033414
3.438,-0.05093114389341623
3.44,-0.06497554789346885
3.442,-0.01688337260394886
3.444,-0.06180264952982419
3.446,-0.011750973444945613
3.448,-0.013627117803347645
3.45,-0.03293558554328278
3.452,-0.06297026460475111
3.454,-0.020063926399670508
3.456,-0.05948704540769913
3.458,-0.04733018673203085
3.46,-0.0323779293085063
3.462,-0.02944422504974226
3.464,-0.022380208706394743
3.466,-0.010442140456149968
3.468,-0.015941478054092316
3.47,0.003273963491684212
3.472,-0.0537784913782779
3.474,-0.004189074507768752
3.476,0.004520284203190349
3.478,0.01515723378360314
3.48,-0.012965685517287141
3.482,-0.0066774183767354875
3.484,-0.03359858119840575
3.486,0.013537165220384999
3.488,-0.030223225160331352
3.49,0.044324624441493723
3.492,-0.00967682869925391
3.494,0.02110167393906321
3.496,0.026254223480241805
3.498,0.03751276502409506
3.5,0.014031549792794973
3.5020000000000002,0.03284685087752309
3.504,-0.003965552245705023
3.5060000000000002,0.032309322799933864
3.508,0.0900858856316869
3.5100000000000002,0.02783895708487271
3.512,0.04132708574561045
3.5140000000000002,0.04754888634318635
3.516,0.05365036451356336
3.5180000000000002,0.035217425577546674
3.52,0.0271620000121615
3.5220000000000002,0.008664265469481597
3.524,0.03598395241651865
3.5260000000000002,0.016655226602020637
3.528,0.05254687273506769
3.5300000000000002,0.0702523549323492
3.532,0.026578282059038283
3.5340000000000003,0.029536317391579442
3.536,0.05352509740081595
3.5380000000000003,0.023171959748972806
3.54,0.027643551139654512
3.5420000000000003,0.02283187999538963
3.544,0.05781068958947881
3.5460000000000003,0.040110694203231774
3.548,0.027689090266465127
3.5500000000000003,0.036460165890212226
3.552,0.012402220522474153
3.5540000000000003,0.021336618391780297
3.556,0.06273411522501163
3.5580000000000003,0.017586451573768543
3.56,0.02925766328288598
3.5620000000000003,0.04220431558895764
3.564,0.010834132719341846
3.5660000000000003,0.04737683695825912
3.568,0.01776908698469075
3.5700000000000003,-0.015270847198994908
3.572,0.009314683026579229
3.5740000000000003,0.01870458303350631
3.576,-0.03298992334050666
3.5780000000000003,0.005832621451020887
3.58,-0.017204198400546135
3.5820000000000003,-0.008560722194546868
3.584,-0.02283809643264696
3.586,-0.06540765391893992
3.588,-0.04542857549468001
3.59,-0.06414656990008659
3.592,-0.06739113054935109
3.594,-0.05870841530780556
3.596,-0.07643795216008464
3.598,-0.0786581198658034
3.6,-0.08986270857318895
3.602,-0.12635170983748373
3.604,-0.12825647835874265
3.606,-0.11584119636430076
3.608,-0.1344420804202162
3.61,-0.1168329747169756
3.612,-0.10657647554001969
3.614,-0.12074307805422561
3.616,-0.1232846485232711
3.618,-0.10974674365345559
3.62,-0.11522684859278431
3.622,-0.09662667268250652
3.624,-0.06489316483679283
3.626,-0.022770497636187916
3.628,-0.017371182955849367
3.63,-0.058319789506156905
3.632,0.028909751023522327
3.634,0.0538438579939171
3.636,0.08706185552568908
3.638,0.12423741924247805
3.64,0.16376306064433777
3.642,0.22946693647140992
3.644,0.27245538016402093
3.646,0.3352465241523896
3.648,0.37018695050854905
3.65,0.41913981759642904
3.652,0.45411881269457
3.654,0.5697277870215054
3.656,0.5918239165588082
3.658,0.6556775697656531
3.66,0.700274115481357
3.662,0.7045135901065512
3.664,0.8237715949053478
3.666,0.8257810116584069
3.668,0.8544980721496602
3.67,0.8716305138975033
3.672,0.9525099149616044
3.674,0.9088778229841392
3.676,0.9473547802196551
3.678,0.939415227280715
3.68,0.9690753036581121
3.682,0.9572139414172576
3.684,0.90416961472419
3.686,0.9222825112365601
3.688,0.9036155905022754
3.69,0.8436087044377824
3.692,0.7912886529669483
3.694,0.7972179702604807
3.696,0.7290950659805977
3.698,0.7037835399763782
3.7,0.6734497951506656
3.702,0.6287993786970846
3.704,0.5793879120096106
3.706,0.5266767536550118
3.708,0.47117326246014324
3.71,0.4246277753671291
3.712,0.38476838876777064
3.714,0.31661820634547366
3.716,0.3091979444931708
3.718,0.2861768055325307
3.72,0.22906905473847042
3.722,0.18271525634220215
3.724,0.14073444490080883
3.726,0.1260621309698333
3.728,0.08545476891863496
3.73,0.07615015610011268
3.732,0.03956202199778225
3.734,0.04569784774820964
3.736,-0.02923862319326366
3.738,-0.0009191459167807135
3.74,-0.03654466122798086
3.742,-0.057570393064816025
3.744,-0.04168439505070634
3.746,-0.06129032444812284
3.748,-0.06705881623723317
3.75,-0.05464150246154818
3.7520000000000002,-0.048818194668668935
3.754,-0.052483918010611766
3.7560000000000002,-0.04537907364724133
3.758,-0.052966792325964275
3.7600000000000002,-0.05849569181724881
3.762,-0.05559421815879848
3.7640000000000002,-0.0646672204836895
3.766,-0.020137420030646277
3.7680000000000002,-0.018572406293434214
3.77,-0.030452116854975002
3.7720000000000002,-0.05453543103047948
3.774,-0.024242048535215145
3.7760000000000002,-0.025845109113702018
3.778,-0.020279665972006637
3.7800000000000002,-0.05736115924860785
3.782,-0.038144093873499936
3.7840000000000003,-0.033529293767246324
3.786,-0.051133345191236364
3.7880000000000003,-0.03459153401541135
3.79,-0.03903774483221259
3.7920000000000003,-0.08634466422383565
3.794,-0.061852222135540494
3.7960000000000003,-0.047079955486577146
3.798,-0.016736003577939102
3.8000000000000003,-0.01692986355866313
3.802,-0.032516105922218964
3.8040000000000003,-0.029640051709465803
3.806,0.006234190451103164
3.8080000000000003,-0.061845573446692774
3.81,-0.05084268970762597
3.8120000000000003,0.014735011855757381
3.814,-0.03499943733425669
3.8160000000000003,-0.013853126302451618
3.818,-0.05442481559773436
3.8200000000000003,-0.032147265612154266
3.822,-0.02310822617797191
3.8240000000000003,-0.05640403742211292
3.826,-0.02706305932325966
3.8280000000000003,-0.03833315881017867
3.83,0.0012152868032351432
3.8320000000000003,-0.04582223426878977
3.834,-0.0299688014875963
3.8360000000000003,-0.03668542102723974
3.838,-0.029428026277496435
3.84,0.008427845532796036
3.842,-0.00419691411342311
3.844,-0.024012709163518935
3.846,0.016057111921186182
3.848,-0.02699284138182453
3.85,-0.03084685816094702
3.852,-0.04943388224228412
3.854,-0.015904220857278325
3.856,-0.05798334494520799
3.858,-0.02175032015197463
3.86,-0.014375330684274492
3.862,-0.006460061565706008
3.864,-0.04386807035823871
3.866,-0.021000285669297746
3.868,-0.009778215167808323
3.87,-0.032338199403020115
3.872,-0.027515848555418707
3.874,-0.025108714844405643
3.876,-0.002674674460858272
3.878,0.008697533517926176
3.88,0.010511685490797618
3.882,0.018772025373273653
3.884,0.012722428213476945
3.886,-0.012937188330982896
3.888,-0.010170991062776628
3.89,-0.021554036719524446
3.892,-0.002806611266982931
3.894,0.005086722104922649
3.896,-0.011385235775956333
3.898,0.014945816084242607
3.9,0.013807379605742711
3.902,-0.01634712156578373
3.904,-0.021037738932516106
3.906,-0.05168709692556476
3.908,0.005931482448088511
3.91,-0.007716671440866794
3.912,-0.020713434881244545
3.914,-0.04845083388049056
3.916,-0.03947196436193331
3.918,-0.03362323116073678
3.92,-0.04446110360053222
3.922,-0.03354281217613693
3.924,-0.043340815574756
3.926,-0.09659577233878516
3.928,-0.013793340559311085
3.93,-0.025570221148672127
3.932,-0.06832391127509496
3.934,-0.07034575837121694
3.936,-0.00933381191699443
3.938,-0.07753143997216183
3.94,-0.11763297240015003
3.942,-0.06443630439787934
3.944,-0.06995273281753864
3.946,-0.05917361864549672
3.948,-0.05386450040095385
3.95,-0.06307106609376369
3.952,-0.08331370280568501
3.954,-0.04704859438182273
3.956,-0.07633327828873765
3.958,-0.06339272034225532
3.96,-0.06481841526208407
3.962,-0.048797768751166495
3.964,-0.08792302841833759
3.966,-0.07891377402761478
3.968,-0.09793412297180826
3.97,-0.06144548415635649
3.972,-0.08151290560690472
3.974,-0.07620887667787274
3.976,-0.10590252494735569
3.978,-0.10390990947496015
3.98,-0.07719757098843161
3.982,-0.15645204242569902
3.984,-0.122351398380341
3.986,-0.09793402525473556
3.988,-0.11323384305890101
3.99,-0.10808966054654286
3.992,-0.12204133209658265
3.994,-0.1484838514159221
3.996,-0.102869349381107
3.998,-0.10727073848156185
4.0,-0.11159997075472179
4.002,-0.12801769785744685
4.0040000000000004,-0.17789317465657822
4.006,-0.1324586750935491
4.008,-0.18827910196732048
4.01,-0.1268329958765596
4.0120000000000005,-0.11774250032003797
4.014,-0.13621432716947585
4.016,-0.10343908605736711
4.018,-0.14302999031120664
4.0200000000000005,-0.1167732189979066
4.022,-0.14558738530625087
4.024,-0.15439647769611908
4.026,-0.1189653013948464
4.0280000000000005,-0.13446251629701636
4.03,-0.1459319478099415
4.032,-0.16536314903871793
4.034,-0.15676162982163824
4.0360000000000005,-0.13337118442179138
4.038,-0.141197794057774
4.04,-0.1905657383744346
4.042,-0.1598620790153489
4.0440000000000005,-0.1017478078429625
4.046,-0.10214602906165463
4.048,-0.13127370548538428
4.05,-0.1369310662093115
4.0520000000000005,-0.12203654464140758
4.054,-0.11119066540912514
4.056,-0.09788111815829904
4.058,-0.10097019280073705
4.0600000000000005,-0.13751223054185133
4.062,-0.13438762543121796
4.064,-0.11067427241526158
4.066,-0.14583699652123974
4.0680000000000005,-0.06595621070158755
4.07,-0.08466301734664913
4.072,-0.10593256003891069
4.074,-0.08871574920336814
4.0760000000000005,-0.06484520652482711
4.078,-0.11743254504105705
4.08,-0.09818678184230248
4.082,-0.06048152714771217
4.0840000000000005,-0.07316738579016473
4.086,-0.08587729736616215
4.088,-0.07191306566462
4.09,-0.06515332800596448
4.0920000000000005,-0.05801788279905146
4.094,-0.04361927913477967
4.096,-0.038076359641341075
4.098,-0.04449482365828266
4.1,-0.048880214971653985
4.102,-0.036393309726982785
4.104,-0.02633555052497382
4.106,-0.054678786370931806
4.108,-0.011974162306596974
4.11,-0.016818234536167043
4.112,0.004654381913129932
4.114,-0.011445805815712716
4.116,-0.038535408720449645
4.118,-0.029706105079674573
4.12,-0.026178740689769876
4.122,0.007809792181189011
4.124,-0.013612979182880135
4.126,-0.0053209240862012175
4.128,-0.009396943255979805
4.13,-0.0050350836666955
4.132,-0.016593464258805833
4.134,0.0043179471434057065
4.136,-0.026250791148199584
4.138,-0.014663777970521425
4.14,0.006520732540348264
4.142,0.028758060936849534
4.144,-0.00779633773163123
4.146,-0.003387697573667834
4.148,-0.011505898886706663
4.15,0.012262984119554312
4.152,0.025266208094412844
4.154,0.025327628638422722
4.156,-0.015977135875932837
4.158,0.022880418285370296
4.16,0.00979001228187511
4.162,0.01707236397617822
4.164,0.010493422284255711
4.166,0.03910962529127662
4.168,-0.008036827555902102
4.17,0.02896650063003653
4.172,0.05820399549389472
4.174,0.05086068554597979
4.176,0.031074996845706148
4.178,0.01081950394699776
4.18,0.0060541178957867064
4.182,0.01570630943497178
4.184,0.04219861543440569
4.186,0.03800924636356128
4.188,0.02083303467117847
4.19,0.0460278352450694
4.192,0.0375328866339305
4.194,0.017643984981116387
4.196,0.012269719015282104
4.198,0.025220077812448904
4.2,0.024495775666907308
4.202,0.04178793274559952
4.204,0.05479189885382123
4.206,0.05145561904062752
4.208,0.020387045298297938
4.21,0.058642309487281406
4.212,0.038776609029901814
4.214,-0.007641152943391125
4.216,0.001109777395028292
4.218,0.009570434715857569
4.22,0.027280866005527402
4.222,0.04620685775252283
4.224,0.05514778370226729
4.226,0.03460875776923092
4.228,0.02657668285301292
4.23,0.053008299636196396
4.232,0.029879932812394552
4.234,0.029988148627682554
4.236,0.0357604004258702
4.238,0.05243413350753605
4.24,0.03952050250336273
4.242,-0.0029191462037037124
4.244,0.046995140773744025
4.246,0.043631775456601865
4.248,0.04116128980324437
4.25,0.007073883251449442
4.252,0.03210760527740656
4.2540000000000004,0.03529274444097099
4.256,0.026605963672242702
4.258,0.04718804772718555
4.26,0.04459041368820211
4.2620000000000005,0.01738407438947205
4.264,0.018863961774505465
4.266,0.027602715389923694
4.268,0.06682823587651594
4.2700000000000005,0.050940517149936214
4.272,0.03329050769241911
4.274,0.043727065186167015
4.276,0.0036745014805008498
4.2780000000000005,0.014067417700250218
4.28,0.04686360478564918
4.282,0.03243167392602018
4.284,0.04492965160605621
4.2860000000000005,0.05518274484966695
4.288,0.039083804193297475
4.29,0.004978314247669214
4.292,0.06221606700694051
4.2940000000000005,0.061694455746345835
4.296,0.029513897657553315
4.298,0.06597119658131612
4.3,0.03425087941644631
4.3020000000000005,0.03493683575998824
4.304,0.027927879827220975
4.306,0.031076024937192186
4.308,0.07836161872999853
4.3100000000000005,0.043625187956205944
4.312,0.034208429731997475
4.314,0.0432223731205938
4.316,0.05533135565651922
4.3180000000000005,0.017002994337061227
4.32,0.04412162553092863
4.322,0.04246285293437482
4.324,0.040072845160695696
4.3260000000000005,0.04574853081951466
4.328,0.05075064622987992
4.33,0.0468515919309135
4.332,0.07456584841998998
4.3340000000000005,0.027851940457625207
4.336,0.07551094817632588
4.338,0.06671922142194159
4.34,0.07842102593283086
4.3420000000000005,0.09589049780689371
4.344,0.10228056370561386
4.346,0.09622536022596045
4.348,0.06177671614868742
4.3500000000000005,0.09635202286216149
4.352,0.11036597353500374
4.354,0.11451922834186842
4.356,0.08270789627601555
4.358,0.09679732300575716
4.36,0.10799707353862498
4.362,0.13486252929892129
4.364,0.14669220593705315
4.366,0.11132553637262585
4.368,0.13444992422702584
4.37,0.14625895821200205
4.372,0.13040282006962456
4.374,0.15393101201479367
4.376,0.1683824283825962
4.378,0.1403795175139313
4.38,0.15731230824308923
4.382,0.14208895055648796
4.384,0.16415564103189695
4.386,0.10359232683955841
4.388,0.17472014319594298
4.39,0.126079515320455
4.392,0.15662058354631594
4.394,0.13298023664645658
4.396,0.12780647003966242
4.398,0.12932655968197454
4.4,0.13110339904879145
4.402,0.14908973382046747
4.404,0.1376659092281974
4.406,0.14254147983404977
4.408,0.12684289300973198
4.41,0.10970517050771322
4.412,0.14412420542444293
4.414,0.09389288475933187
4.416,0.1466440522124463
4.418,0.10221215578622496
4.42,0.13478495482599834
4.422,0.09810690086677218
4.424,0.0830648367553925
4.426,0.06550381971299113
4.428,0.08312289858980237
4.43,0.06266053947908526
4.432,0.06310677788955184
4.434,0.09482364365486862
4.436,0.04987068680102362
4.438,0.05399628686675981
4.44,0.06288325693654442
4.442,0.052691566508271594
4.444,0.05339994103354005
4.446,0.028763108565719706
4.448,0.013745752977708465
4.45,0.015387105013077891
4.452,0.022300179425218825
4.454,0.024346738522993926
4.456,0.018099940477127437
4.458,0.0182603433748893
4.46,0.023817463050351893
4.462,-0.013472717809797564
4.464,-0.016373770541420828
4.466,-0.017205186307864842
4.468,-0.05043965981541017
4.47,-5.092712315801773e-05
4.472,0.01968715173062599
4.474,-0.007374957921609943
4.476,-0.021285544788381558
4.478,-0.010154963418407707
4.48,0.011059650807594225
4.482,0.017769876106074178
4.484,0.06075619167539864
4.486,0.06490434086805388
4.488,0.09431502510125303
4.49,0.09617066870630624
4.492,0.17742649249043313
4.494,0.24440751270451436
4.496,0.2966014537823298
4.498,0.2899217695149711
4.5,0.31920566993750665
4.502,0.36680039402837783
4.5040000000000004,0.4712111000276578
4.506,0.4677402428608752
4.508,0.5455158304212997
4.51,0.6052879131961952
4.5120000000000005,0.6498456682218376
4.514,0.7219145208541965
4.516,0.7531298709270154
4.518,0.8216161097245075
4.5200000000000005,0.8518678867878633
4.522,0.8798293151410431
4.524,0.9301360744556304
4.526,0.9224878329264978
4.5280000000000005,0.9485986466243517
4.53,0.9871464771405501
4.532,1.0092901820025786
4.534,1.0087899528913378
4.5360000000000005,1.006139027406097
4.538,1.0279860057907477
4.54,1.0186161788933161
4.542,1.0070748587383
4.5440000000000005,0.9915996660295041
4.546,0.9526818280367947
4.548,0.9733001941508558
4.55,0.9190376194230911
4.5520000000000005,0.8575800456847122
4.554,0.8338336277831783
4.556,0.7687961104797358
4.558,0.7296219725310908
4.5600000000000005,0.6800882900338022
4.562,0.6382789211367005
4.564,0.5617047987632743
4.566,0.5555895745591464
4.5680000000000005,0.5174828944861107
4.57,0.45102797028674474
4.572,0.42388975956469155
4.574,0.39094232321503847
4.5760000000000005,0.31534764707997187
4.578,0.30655468945817166
4.58,0.2594072967711058
4.582,0.23518876518427265
4.5840000000000005,0.16168745699597015
4.586,0.1449667706467133
4.588,0.08658171554363754
4.59,0.09487489687973846
4.5920000000000005,0.08574123502157605
4.594,0.05368384520539242
4.596,0.06688753192724128
4.598,0.07189290912002724
4.6000000000000005,0.04581010298731857
4.602,0.05069674666179503
4.604,0.05618017655577911
4.606,0.016489345613023395
4.6080000000000005,0.00566416378583437
4.61,0.028666715450218098
4.612,0.01129875305171598
4.614,0.030938889025731525
4.616,0.06908195002772263
4.618,0.04880839385988063
4.62,0.04495889180161641
4.622,0.028180672004204196
4.624,0.043590645625768476
4.626,0.04366916358073127
4.628,0.040525766958926276
4.63,0.059343521970497734
4.632,0.06470169231939679
4.634,-0.037263465372555815
4.636,0.0544703545926138
4.638,0.051599508300743065
4.64,0.044780538241160565
4.642,0.032862652969871065
4.644,0.07943816721437895
4.646,0.038410882901041006
4.648,0.026643705639247776
4.65,0.07163787859003892
4.652,-0.0003741119518176785
4.654,0.030319129240257696
4.656,0.05000111447023407
4.658,0.060707571625824595
4.66,0.04477526380014998
4.662,0.05715171247904149
4.664,0.06944082441146288
4.666,0.031168996835275867
4.668,0.06552732255497078
4.67,0.006381867050736016
4.672,0.045305684493220685
4.674,0.03424076494533767
4.676,0.02550808866152145
4.678,0.04373448180480652
4.68,0.016276116145808487
4.682,0.05842446939086656
4.684,0.01978797537080224
4.686,0.058828608668943495
4.688,0.06128371236601097
4.69,0.018026142520964104
4.692,0.061743102107858695
4.694,0.042833236630608555
4.696,0.0693981920995369
4.698,0.03223081152347464
4.7,0.04763792311334941
4.702,0.005501333443478978
4.704,0.020976393044409344
4.706,0.012350233008818217
4.708,0.056834328070586554
4.71,0.034765541113696424
4.712,0.03501399505667146
4.714,0.015457748968919006
4.716,0.03200580740896366
4.718,0.047874728855126364
4.72,0.02192503289454397
4.722,0.013182851322197294
4.724,0.03523761727434317
4.726,0.0356837934605651
4.728,0.06937617763337492
4.73,0.02622621929606876
4.732,0.03474457293677995
4.734,0.043711100780967856
4.736,0.06745380309522184
4.738,0.024816361013175105
4.74,0.048122078779358535
4.742,0.013885035477765824
4.744,0.042512490643358276
4.746,0.02398316741023749
4.748,0.025187559866817644
4.75,-0.013937302528848387
4.752,0.010284512415378621
4.7540000000000004,0.003205812199218965
4.756,0.044867000487017056
4.758,0.01071723146469868
4.76,0.035293095238616574
4.7620000000000005,0.014139273611020764
4.764,0.003392581217198605
4.766,0.03283659620314236
4.768,0.005907939681708142
4.7700000000000005,0.04043668350380469
4.772,-0.011190306934092478
4.774,0.025730115171039344
4.776,0.028081311883462988
4.7780000000000005,-0.017296401852982847
4.78,-0.004868326090825145
4.782,0.005908349218613926
4.784,0.010271676435358968
4.7860000000000005,0.029162761365494283
4.788,0.012225682752650756
4.79,-0.04469434022840903
4.792,-0.002890334571493784
4.7940000000000005,-0.006716048285942577
4.796,-0.021474231273064658
4.798,-0.025150482440350244
4.8,-0.03107443430736864
4.8020000000000005,0.01038863665861088
4.804,-0.04957280202927263
4.806,-0.00929085041817427
4.808,-0.0032470538181573402
4.8100000000000005,-0.0364588122630916
4.812,-0.016080887872329808
4.814,-0.04296397152728169
4.816,-0.03700078093025108
4.8180000000000005,0.001243381032293031
4.82,-0.057029324280365425
4.822,-0.0508903250701179
4.824,-0.010632362951357943
4.8260000000000005,-0.05177039346892476
4.828,-0.02613442482222718
4.83,-0.05382200299354056
4.832,-0.013364201891559693
4.8340000000000005,-0.05532487644098391
4.836,-0.11646390005054968
4.838,-0.11045698161892523
4.84,-0.06407498642671317
4.8420000000000005,-0.10075520591902258
4.844,-0.0654970334393562
4.846,-0.06759098407983039
4.848,-0.08869069739369609
4.8500000000000005,-0.11505759924626324
4.852,-0.14024976489361834
4.854,-0.1084572107856999
4.856,-0.10866235787819738
4.8580000000000005,-0.11116431953757674
4.86,-0.06963854776714598
4.862,-0.1062173618426532
4.864,-0.13789689869163946
4.866,-0.11966731067488484
4.868,-0.15412953533728666
4.87,-0.14431403979637122
4.872,-0.1666837750694443
4.874,-0.10123843868951568
4.876,-0.16812302110077496
4.878,-0.13318236791878985
4.88,-0.10642683190084605
4.882,-0.14258733185395261
4.884,-0.1265183120325795
4.886,-0.1744282467747732
4.888,-0.13906850062972662
4.89,-0.1343486799735645
4.892,-0.11988111175047807
4.894,-0.12384147160109725
4.896,-0.1430809997544363
4.898,-0.11533098585526591
4.9,-0.1449827728775216
4.902,-0.1261324587671411
4.904,-0.16440624980077811
4.906,-0.12526924055015914
4.908,-0.1341389702655176
4.91,-0.12909313678131626
4.912,-0.151368004538482
4.914,-0.09591624551946178
4.916,-0.1243700705510539
4.918,-0.10099459870795252
4.92,-0.11727182317357777
4.922,-0.11058295547320307
4.924,-0.13725092932893332
4.926,-0.10617775041447564
4.928,-0.08233970577353991
4.93,-0.1216219541463981
4.932,-0.12927630560078007
4.934,-0.08221753623656489
4.936,-0.08351976048345236
4.938,-0.07930210157483661
4.94,-0.10710812325489816
4.942,-0.09305313745561206
4.944,-0.08458325683941098
4.946,-0.08878847713099709
4.948,-0.05692435939569288
4.95,-0.05670796068178926
4.952,-0.0768733176674794
4.954,-0.06094455294701476
4.956,-0.07753261416359533
4.958,-0.10544049540787956
4.96,-0.058605239232030565
4.962,-0.07263229616234104
4.964,-0.057013558285843986
4.966,-0.020259805134817212
4.968,-0.056804721682252826
4.97,-0.026108996698787218
4.972,-0.025419435783040806
4.974,-0.047099116008509245
4.976,-0.017044633408848854
4.978,-0.08134498599506118
4.98,-0.05121181753651627
4.982,-0.02771483052126952
4.984,-0.024252507571640023
4.986,-0.026926330976788447
4.988,-0.03571140564208823
4.99,-0.025734306983270443
4.992,-0.04645779182310662
4.994,-0.04548830149736963
4.996,-0.04209014758595085
4.998,-0.02386986431867302
5.0,-0.03177109738597613
5.002,-0.01780494510600538
5.0040000000000004,-0.024699332188621803
5.006,-0.009104293271976156
5.008,-0.06262776811498943
5.01,-0.010951712531399656
5.0120000000000005,-0.031464751060282285
5.014,-0.04321258905195592
5.016,0.010940752005756265
5.018,-0.00949997056118523
5.0200000000000005,-0.02982005889772874
5.022,-0.023408166869556067
5.024,-0.0007125617286419458
5.026,-0.0527013919704144
5.0280000000000005,0.03379760599300046
5.03,0.02525612922611188
5.032,-0.0037349749443539547
5.034,-0.02263809340486671
5.0360000000000005,0.005837227596130273
5.038,-0.04960703166988122
5.04,0.02310298199393182
5.042,-0.0061565559968742856
5.0440000000000005,0.004718315553245277
5.046,0.0009248134862155058
5.048,-0.008964141908779982
5.05,-0.034414348812851506
5.0520000000000005,0.03341465300636822
5.054,-0.026043967134029
5.056,-0.013716295174155853
5.058,0.016749687696378395
5.0600000000000005,-0.01915862091957934
5.062,0.017168895620890832
5.064,-0.060351036493745736
5.066,-0.02612462415721309
5.0680000000000005,-0.012538504706758925
5.07,-0.017232419412486044
5.072,-0.005571222335666175
5.074,0.014196069912126174
5.0760000000000005,0.003523021298585614
5.078,-0.003731243851895433
5.08,-0.0029193470153601564
5.082,-0.0051738252062861105
5.0840000000000005,0.019804995417403565
5.086,-0.007259715780763926
5.088,0.002657089044096168
5.09,-0.014003809106354067
5.0920000000000005,-0.015461932762312036
5.094,-0.030820173934869858
5.096,0.005501322980319383
5.098,-0.02096104477865399
5.1000000000000005,-0.008841848695299966
5.102,-0.028250327459507212
5.104,-0.007113247847547962
5.106,-0.022323411175865514
5.1080000000000005,-0.03154535197356724
5.11,0.0025671259594721957
5.112,-0.025181265554989497
5.114,-0.029335539612322915
5.1160000000000005,0.011001736571835476
5.118,0.0073057578389424775
5.12,-0.04402901413430021
5.122,-0.04448736189342538
5.124,0.005422930751393289
5.126,-0.01853848013679476
5.128,0.009541192372069681
5.13,0.00660149345328811
5.132,-0.037335213937352445
5.134,0.016307847312170637
5.136,-0.02565099288088095
5.138,0.010119761595286915
5.14,-0.07493336290336454
5.142,-0.03361872811871049
5.144,0.014690058642697575
5.146,0.007538336399886459
5.148,-0.030392964920021245
5.15,-0.010419079643955676
5.152,-0.01263094380998051
5.154,-0.010744098366114549
5.156,-0.04624333253493326
5.158,-0.03979779415996601
5.16,-0.008969531645772522
5.162,-0.028949398907437765
5.164,0.01774131742331704
5.166,-0.035020441854256595
5.168,-0.022218231032117175
5.17,-0.014388085059302608
5.172,-0.02624027478951328
5.174,-0.011487886158379257
5.176,0.007070508346241143
5.178,-0.0027082380609633402
5.18,-0.024016464269712816
5.182,0.01567433413759954
5.184,-0.0135338473956623
5.186,0.00822494522462193
5.188,-0.020737734847597986
5.19,0.008499132331617063
5.192,-0.01896282333382568
5.194,0.01404957203017105
5.196,0.016781016199866255
5.198,-0.004094333536404968
5.2,0.036887119139184035
5.202,0.036974120404673086
5.204,0.05143611965976415
5.206,0.027840384891295332
5.208,0.062291217096726345
5.21,0.03696609120012805
5.212,0.03061311545852652
5.214,0.0423678290931845
5.216,0.048689845052932
5.218,0.02096971036454434
5.22,0.03859078937553366
5.222,0.06882137361726379
5.224,0.02637932930934768
5.226,0.061431775516310926
5.228,0.06739227434873385
5.23,0.05188740941487565
5.232,0.07978884637461876
5.234,0.07210168848786633
5.236,0.08370335617392834
5.238,0.06689702382453874
5.24,0.07042992688663649
5.242,0.060920284589148756
5.244,0.058178836495086685
5.246,0.04167136903473331
5.248,0.07237430897123791
5.25,0.06374774862523484
5.252,0.024580031269069977
5.2540000000000004,0.07964129597700781
5.256,0.06291154686311423
5.258,0.06153187730543319
5.26,0.019482412257713577
5.2620000000000005,0.06764948146721379
5.264,0.03595029039855951
5.266,0.041271316091403464
5.268,0.04606386381486708
5.2700000000000005,0.05281254573410582
5.272,0.030602194716857087
5.274,0.01049684758899555
5.276,0.0620007609007066
5.2780000000000005,-0.026500910707838735
5.28,0.02332206847254848
5.282,0.00392437759724109
5.284,0.02017024465700628
5.2860000000000005,0.0002657840390941496
5.288,-0.012876348695720338
5.29,0.008362517769444446
5.292,0.0040545381840667236
5.2940000000000005,-0.027698441131727376
5.296,0.005339731967148268
5.298,-0.007242418946874506
5.3,-0.022773518478257947
5.3020000000000005,-0.04053147007101149
5.304,-0.06614497128064649
5.306,-0.040081840321656924
5.308,-0.04694790214323992
5.3100000000000005,-0.06353210331580875
5.312,-0.06089912146772557
5.314,-0.10147495806676773
5.316,-0.0749649780907524
5.3180000000000005,-0.08768603674147826
5.32,-0.13004398167235143
5.322,-0.12169096119968303
5.324,-0.1037302878734851
5.3260000000000005,-0.10898098229296553
5.328,-0.1021148926107059
5.33,-0.12617624851473017
5.332,-0.13443320331787598
5.3340000000000005,-0.09487131841221351
5.336,-0.08815945790808062
5.338,-0.08612392470110106
5.34,-0.08532520702597836
5.3420000000000005,-0.04677411865368877
5.344,0.002117207015935825
5.346,0.040606127836443545
5.348,0.05616464403858029
5.3500000000000005,0.09427638143806163
5.352,0.12533557641305337
5.354,0.1567868997493228
5.356,0.22874786651101103
5.3580000000000005,0.25837099434782085
5.36,0.35998589296180517
5.362,0.36376944090181823
5.364,0.45243576658701357
5.3660000000000005,0.4898293981831065
5.368,0.5227607931127869
5.37,0.5777097511006306
5.372,0.63545299406679
5.3740000000000006,0.6908761465459763
5.376,0.7127515265965108
5.378,0.7676897753656132
5.38,0.8168156106669251
5.382,0.826002488371586
5.384,0.847297224125414
5.386,0.8583120793006387
5.388,0.9045924710125275
5.39,0.909923608579522
5.392,0.922516363515208
5.394,0.9265351455862465
5.396,0.9188429773877543
5.398,0.9159174526656847
5.4,0.9324576890625162
5.402,0.8841078968075803
5.404,0.8560910589886158
5.406,0.8194460468817123
5.408,0.7883952818647179
5.41,0.7380465371013721
5.412,0.7117622607126376
5.414,0.6595851999066962
5.416,0.6151477649331215
5.418,0.5797337989866748
5.42,0.531406805891633
5.422,0.4557372752945185
5.424,0.4594866179918246
5.426,0.33712261217843437
5.428,0.3371721266981849
5.43,0.28317863814667016
5.432,0.2716155361875258
5.434,0.20824943861420614
5.436,0.15694609832051906
5.438,0.148968286922382
5.44,0.1556973596903361
5.442,0.05379693687810454
5.444,0.0666297600051196
5.446,0.004377854174337517
5.448,0.01119518150606335
5.45,-0.044023095613610036
5.452,-0.03223726849686555
5.454,-0.018049669510898696
5.456,-0.020072044771068862
5.458,-0.03974099975130173
5.46,-0.046905293301128526
5.462,-0.07187916086992552
5.464,-0.0791544468762464
5.466,-0.037781441054981234
5.468,-0.09806016131689561
5.47,-0.0798413345158043
5.472,-0.08485261184877724
5.474,-0.08086871229290196
5.476,-0.07168517007445127
5.478,-0.07268565472580779
5.48,-0.06374903140522319
5.482,-0.03830988628983815
5.484,-0.02007450253579931
5.486,-0.033767691143581816
5.488,-0.05315989741035058
5.49,-0.04611430896831487
5.492,-0.03136466219920854
5.494,-0.058898948462337085
5.496,-0.08778135241723707
5.498,-0.05211487035383061
5.5,-0.05679810487699635
5.502,-0.08229558859028625
5.5040000000000004,-0.03444385332223441
5.506,-0.04259099609715148
5.508,-0.03682729531926624
5.51,-0.08737730540511404
5.5120000000000005,-0.02726989337314041
5.514,-0.060621718147452965
5.516,-0.03441628755318961
5.518,-0.0008293942940998132
5.5200000000000005,-0.0391683466489013
5.522,-0.05117433265382172
5.524,-0.021933200053854632
5.526,-0.046215971685762545
5.5280000000000005,-0.0646187147607302
5.53,-0.036971675760321364
5.532,-0.06184065571125345
5.534,-0.05949047995496979
5.5360000000000005,-0.04953515150781317
5.538,-0.051759248430827166
5.54,-0.06941437791254419
5.542,-0.051072755908462775
5.5440000000000005,-0.0757045463345023
5.546,-0.04607704575917372
5.548,-0.06319165104978655
5.55,-0.058085629254356334
5.5520000000000005,-0.09428132151903884
5.554,-0.03750924642421178
5.556,-0.055211919044834176
5.558,-0.033535334573473935
5.5600000000000005,-0.05104516019748138
5.562,-0.047339924433930695
5.564,-0.041184391761867965
5.566,-0.07414573640124414
5.5680000000000005,-0.04542055565008147
5.57,-0.0536103283768809
5.572,-0.008239839095219274
5.574,-0.007468297739600013
5.5760000000000005,-0.05553842347445891
5.578,-0.00363182986752187
5.58,-0.043054645118894154
5.582,-0.05623719638652104
5.5840000000000005,-0.0046893518193148985
5.586,-0.022556453518513132
5.588,-0.035057179540489515
5.59,-0.023403560423436783
5.5920000000000005,-0.07827039322545723
5.594,-0.05735349777253934
5.596,-0.03886489259353414
5.598,-0.0871043415035962
5.6000000000000005,-0.07581704362837588
5.602,-0.0892549908005266
5.604,-0.041271868770173484
5.606,-0.06124467544589765
5.6080000000000005,-0.048743585571234954
5.61,-0.0887024010278337
5.612,-0.044968410396445654
5.614,-0.05696342878299165
5.6160000000000005,-0.03538019352192123
5.618,-0.06130756717914208
5.62,-0.09493896423181061
5.622,-0.08556727452302429
5.6240000000000006,-0.08977080462731832
5.626,-0.08010866819664618
5.628,-0.0877517882186202
5.63,-0.126543362222831
5.632,-0.061678678745678873
5.634,-0.05176732285366718
5.636,-0.09492507776643934
5.638,-0.052784233041266795
5.64,-0.05667353466479416
5.642,-0.09018109893954487
5.644,-0.06610197359698612
5.646,-0.08971083734426448
5.648,-0.04356363720553875
5.65,-0.06586712285401454
5.652,-0.1068555383090734
5.654,-0.08911022054853163
5.656,-0.10294945721522586
5.658,-0.07139043129526852
5.66,-0.09039808154719264
5.662,-0.09360835377679191
5.664,-0.09832687321024287
5.666,-0.10971315510967106
5.668,-0.1369016079272139
5.67,-0.09777982365403416
5.672,-0.08426150190900374
5.674,-0.08455084092966465
5.676,-0.11069268191617236
5.678,-0.1467921164168685
5.68,-0.1186333148771832
5.682,-0.12260010633031561
5.684,-0.13373584554504445
5.686,-0.14602520519239198
5.688,-0.1552236270510764
5.69,-0.15594047109969839
5.692,-0.10187173353051701
5.694,-0.14163457606321322
5.696,-0.11958300742126957
5.698,-0.18736625942687143
5.7,-0.1250890092637544
5.702,-0.1644665745588566
5.704,-0.1693977515497414
5.706,-0.16004903649744276
5.708,-0.14203998942503201
5.71,-0.12937062019652945
5.712,-0.16724776156739204
5.714,-0.1341913438705119
5.716,-0.20021126269389158
5.718,-0.16215636419240112
5.72,-0.2080603485376615
5.722,-0.21455142673378588
5.724,-0.2096651900453222
5.726,-0.17951795652474892
5.728,-0.21154582102141747
5.73,-0.20759755702042487
5.732,-0.1887387944124036
5.734,-0.18132110689880124
5.736,-0.16756390347603659
5.738,-0.24202432110413263
5.74,-0.16354733233088184
5.742,-0.17050695539808158
5.744,-0.1860303983970823
5.746,-0.1822503422491156
5.748,-0.15211105692988608
5.75,-0.17556898128573417
5.752,-0.16989886330966245
5.7540000000000004,-0.19581259271601237
5.756,-0.1705461346220833
5.758,-0.17876837201211204
5.76,-0.1769403493289058
5.7620000000000005,-0.20774407798041394
5.764,-0.17094193987990033
5.766,-0.18542584330255943
5.768,-0.17456502087050155
5.7700000000000005,-0.18000295991375406
5.772,-0.16210571604571447
5.774,-0.16345518122195957
5.776,-0.1723408092804671
5.7780000000000005,-0.16307403451663727
5.78,-0.17859102889775094
5.782,-0.1354566506453037
5.784,-0.12034844691791954
5.7860000000000005,-0.1326550146375497
5.788,-0.1257067314621467
5.79,-0.1502528004142528
5.792,-0.16707531801140785
5.7940000000000005,-0.10161015216737031
5.796,-0.15333493593215483
5.798,-0.111486740149725
5.8,-0.0808940829681912
5.8020000000000005,-0.09334706380864355
5.804,-0.14516928023747533
5.806,-0.11129510500363195
5.808,-0.11899972702208075
5.8100000000000005,-0.12271623563761698
5.812,-0.07675380147848497
5.814,-0.10514995174372778
5.816,-0.11505450302240074
5.8180000000000005,-0.07553395908459812
5.82,-0.06224707114229121
5.822,-0.08074353679888457
5.824,-0.06096575697353483
5.8260000000000005,-0.04027803399561536
5.828,-0.05813696113441778
5.83,-0.1068427469732306
5.832,-0.06304939901676651
5.8340000000000005,-0.045612193687724
5.836,-0.06767320990753758
5.838,-0.07897743121952108
5.84,-0.06459328398789786
5.8420000000000005,-0.08832775240435496
5.844,-0.041921764488821116
5.846,-0.03300527481073228
5.848,-0.03520194023021901
5.8500000000000005,-0.0351649680292567
5.852,-0.021483033063486263
5.854,-0.02597272597331786
5.856,0.012009333336962583
5.8580000000000005,-0.0736454478247402
5.86,-0.05200932134590962
5.862,-0.026405052565546646
5.864,-0.028191280982241516
5.8660000000000005,-0.03807308473994915
5.868,-0.046008528438354596
5.87,-0.03651128934646026
5.872,-0.021297773402383625
5.8740000000000006,-0.028489639225277634
5.876,-0.03185140277689245
5.878,-0.030210216858823732
5.88,-0.05126386380703417
5.882000000000001,-0.025965813967543973
5.884,-0.03681947612575437
5.886,-0.04056327030848473
5.888,-0.03593538069334493
5.89,-0.04942564559684362
5.892,-0.005104180393101928
5.894,-0.015924037839365534
5.896,-0.03532885831834358
5.898,-0.024482993114440018
5.9,0.01114959914534211
5.902,-0.039734165668059714
5.904,-0.014828401308584468
5.906,-0.011142851377993902
5.908,0.00017041427022613815
5.91,-0.01272460599504425
5.912,-0.01721864346196101
5.914,-0.027008187923829488
5.916,-0.0244543840901634
5.918,-0.03366518811087034
5.92,-0.025739396529742328
5.922,-0.03824660058984769
5.924,0.02466042232251198
5.926,-0.021168959694333012
5.928,-0.03506737878320524
5.93,-0.032407839048694174
5.932,-0.014221380323643458
5.934,0.001843720617078055
5.936,0.003458776524622538
5.938,-0.034203343253202845
5.94,-0.03492156218118946
5.942,-0.0006713675288985705
5.944,-0.004350474345611265
5.946,-0.013011609347492977
5.948,-0.02979489033545744
5.95,0.005613342675287059
5.952,0.02821514652525706
5.954,-0.003789415112012497
5.956,0.016805448031378945
5.958,-0.007543424232250168
5.96,0.0017738792923567175
5.962,-0.00403450568546106
5.964,-0.014715160349466464
5.966,-0.03256976593310262
5.968,0.02254708837278394
5.97,-0.0210289547434578
5.972,-0.02725652285791154
5.974,-0.01762251143135368
5.976,-0.014249432169534589
5.978,-0.030667802607383915
5.98,0.001902843508168245
5.982,0.0052155457584534696
5.984,0.01263895148634716
5.986,0.005070859040384623
5.988,0.00033371222797693497
5.99,0.02551300723111997
5.992,0.00417902536630456
5.994,0.005649717542002074
5.996,0.005818983426977909
5.998,-0.0013134103306442772
6.0,0.015549634757496836
6.002,-0.02052556143403926
6.0040000000000004,0.017864816751745137
6.006,-0.007128516902983986
6.008,-0.0012025788485264125
6.01,-0.006384790664390137
6.0120000000000005,-0.0060272946287264935
6.014,0.005841839613703215
6.016,0.03611884475809767
6.018,0.002255788358152464
6.0200000000000005,-0.006514022487963506
6.022,0.013025032167439913
6.024,0.004258414706169696
6.026,0.013061080811153232
6.0280000000000005,0.029236553111727487
6.03,-0.004688955891425943
6.032,0.03723822287374397
6.034,0.02368433808439995
6.0360000000000005,0.017770232371853822
6.038,0.030596599913958564
6.04,0.035624257517402474
6.042,0.023988224771228472
6.0440000000000005,0.035088026377588
6.046,0.04292298296420513
6.048,0.022663190564651034
6.05,-0.00032904521111273843
6.0520000000000005,0.02536661542068268
6.054,0.0424764350459762
6.056,0.047750360133443956
6.058,0.045247389042736536
6.0600000000000005,0.060738828285262565
6.062,0.06173128269607615
6.064,0.03928011854028342
6.066,0.0700850159200961
6.0680000000000005,0.07634930661357814
6.07,0.05072849926301504
6.072,0.12173795947837668
6.074,0.10467150470230785
6.0760000000000005,0.0653799975495877
6.078,0.141787019444931
6.08,0.09407103747282096
6.082,0.1101253414210661
6.0840000000000005,0.12809909176802045
6.086,0.1131005015694444
6.088,0.10988612135129064
6.09,0.09742331373581418
6.0920000000000005,0.09393624735216552
6.094,0.14132904763382384
6.096,0.13673032279964592
6.098,0.13052098500772408
6.1000000000000005,0.11095259120617815
6.102,0.12016605174580793
6.104,0.13545281438950574
6.106,0.1356438636943625
6.1080000000000005,0.11425159957661432
6.11,0.11133803987129219
6.112,0.1175748156229862
6.114,0.08311925781315543
6.1160000000000005,0.0921694759971037
6.118,0.1438748260924455
6.12,0.08651601430521824
6.122,0.09247027119688266
6.1240000000000006,0.11954470421357347
6.126,0.04101968817718048
6.128,0.07330255976279991
6.13,0.09718296627926278
6.132000000000001,0.1117666174578722
6.134,0.100448189493657
6.136,0.0383864569579405
6.138,0.08700370459849115
6.140000000000001,0.056907079761503596
6.142,0.089393057193186
6.144,0.0836925229854265
6.146,0.03470716636056127
6.148,0.033493665877489684
6.15,0.040859766914204745
6.152,0.035948693086509886
6.154,0.0289066339631658
6.156,0.040931348539278184
6.158,0.017776337421422306
6.16,0.05534667046192035
6.162,0.03953117248426682
6.164,-0.020327403525009398
6.166,-0.005507170479720571
6.168,0.011187440794265785
6.17,-0.047409452496642274
6.172,0.029525564181608316
6.174,0.012035161909959693
6.176,-0.027155313702360573
6.178,-0.03965690946538431
6.18,-0.049322667908816314
6.182,-0.04114048939009391
6.184,-0.013164430929536772
6.186,-0.06544900064810996
6.188,-0.04171913941308369
6.19,-0.0017868853442859906
6.192,-0.04413473401584307
6.194,-0.04194289860367112
6.196,0.01888928186031883
6.198,0.0141728545654255
6.2,0.03722773024945875
6.202,0.09274631777106856
6.204,0.10816182349796657
6.206,0.13494491283977314
6.208,0.17628843396322993
6.21,0.22217610632064788
6.212,0.24451913153531585
6.214,0.34689789175411934
6.216,0.3775358279957486
6.218,0.4281136674684805
6.22,0.44432568242257564
6.222,0.5426011184582799
6.224,0.5768224943035118
6.226,0.5857141411241618
6.228,0.7047315669985559
6.23,0.7635423011579902
6.232,0.792704275920718
6.234,0.8135145604670962
6.236,0.8314177527347356
6.238,0.904536642425161
6.24,0.934827261589823
6.242,0.9839053145458732
6.244,0.9715723238837171
6.246,1.0085351575066488
6.248,1.0283207191264145
6.25,1.0093019773447467
6.252,1.0254273222996555
6.2540000000000004,1.0261466952621159
6.256,0.968356783891429
6.258,0.9600369247978202
6.26,0.9428480009315361
6.2620000000000005,0.9130286931295274
6.264,0.890311165351402
6.266,0.8846663218419684
6.268,0.8140430978923514
6.2700000000000005,0.7738704397467908
6.272,0.7168686984918818
6.274,0.699177431704415
6.276,0.6458138892497798
6.2780000000000005,0.6203017468488525
6.28,0.558153440429902
6.282,0.5174818146380743
6.284,0.4033894328773246
6.2860000000000005,0.38944438490142047
6.288,0.3705533004121688
6.29,0.2997837248338151
6.292,0.27422739944400726
6.2940000000000005,0.2581363760718221
6.296,0.2360388678758645
6.298,0.1425317526859792
6.3,0.1503513160050541
6.3020000000000005,0.14293282494916068
6.304,0.0945508915754253
6.306,0.11903208298168684
6.308,0.09304714811863264
6.3100000000000005,0.06254397007892112
6.312,0.04250503431119524
6.314,0.014614469056398096
6.316,0.05227511965107438
6.3180000000000005,0.048415661558639786
6.32,0.00027575758448098245
6.322,0.017342705720540183
6.324,0.028761389655379922
6.3260000000000005,-0.007430235563090901
6.328,0.026769248126903237
6.33,0.009464400106065082
6.332,0.03313300913641417
6.3340000000000005,0.023915371018675715
6.336,0.03950625303970902
6.338,0.029155296684337924
6.34,0.04379303079718981
6.3420000000000005,0.021257507553441156
6.344,0.014733133425805567
6.346,0.028921493308415588
6.348,0.017106369283865646
6.3500000000000005,0.009294005516037655
6.352,0.058973450803074506
6.354,0.038174023718905256
6.356,0.055033480417647156
6.3580000000000005,0.0835940092775568
6.36,0.059824340100595466
6.362,0.0650964380056341
6.364,0.03963525004434636
6.3660000000000005,0.049595762490158395
6.368,0.043019655744268505
6.37,0.029084627823016386
6.372,0.07390790006865255
6.3740000000000006,0.031668386125196464
6.376,0.03143522764103236
6.378,0.037996926251553376
6.38,0.05020147437732962
6.382000000000001,0.007914702551868104
6.384,0.0506269562320033
6.386,0.02148971195311644
6.388,0.037991154340181424
6.390000000000001,0.049515064574488614
6.392,0.047599286937808134
6.394,0.06614984884184887
6.396,0.06094944140479819
6.398000000000001,0.09871646115185957
6.4,0.016644606218036685
6.402,0.045049648560830685
6.404,0.0589584407175569
6.406,0.04485120959295257
6.408,0.06810712870891183
6.41,0.053149389840226616
6.412,0.04951103489818965
6.414,0.05870744125970431
6.416,0.022695872794816767
6.418,0.07930623143850343
6.42,0.02766071795760074
6.422,0.07720502413567588
6.424,0.025574792400196833
6.426,0.023005729202269336
6.428,0.012988755533650639
6.43,0.04756692330142234
6.432,0.07321830991476336
6.434,0.045518001029027505
6.436,0.02988315659770494
6.438,0.027147234478942656
6.44,0.06633522864749761
6.442,0.098398762975773
6.444,0.06482882455965024
6.446,0.026510713245050183
6.448,0.05540711477842429
6.45,0.03980211745656318
6.452,0.014686723981640167
6.454,0.05176264790324177
6.456,0.013109880879824868
6.458,0.051383563343927637
6.46,0.040024078345049605
6.462,0.03140132773505667
6.464,0.06307732522647269
6.466,0.03947592227365168
6.468,0.07953925010861114
6.47,0.022978566591915082
6.472,0.08256550500785408
6.474,0.03688264370097123
6.476,0.08216181111421487
6.478,0.014495567957055092
6.48,0.04123975659755089
6.482,0.009765604189999343
6.484,0.012630348598027138
6.486,0.0663985551551765
6.488,0.015870113579727313
6.49,0.03661062893051878
6.492,0.0005096506197056136
6.494,0.05559295666707163
6.496,0.05816256526502984
6.498,0.002183104411746191
6.5,0.007699401085508699
6.502,0.009884214735425202
6.5040000000000004,0.008602764454942048
6.506,0.016931509087655824
6.508,0.01411464340967098
6.51,-0.01867703618732036
6.5120000000000005,0.0033865875387700944
6.514,0.0019227055913308908
6.516,-0.015935213711244477
6.518,0.0074062420188755335
6.5200000000000005,-0.01835978185380447
6.522,-0.03579114817244486
6.524,-0.06251523726900507
6.526,-0.026191111646824458
6.5280000000000005,0.013218686079526643
6.53,-0.00808074040380801
6.532,-0.05213296485445193
6.534,-0.03163811238899283
6.5360000000000005,-0.03964179992078169
6.538,-0.045613483336768595
6.54,-0.035106906080743766
6.542,-0.062021485432590256
6.5440000000000005,-0.031819133273835176
6.546,-0.02084686703997958
6.548,-0.04751650547136118
6.55,-0.005987525275280639
6.5520000000000005,-0.06228665759528903
6.554,-0.07337793189861519
6.556,-0.08349470815610971
6.558,-0.04685041872813042
6.5600000000000005,-0.04335971746348201
6.562,-0.036170897967055624
6.564,-0.07223092412248033
6.566,-0.05711582516003816
6.5680000000000005,-0.09017158768088124
6.57,-0.08960330333524526
6.572,-0.0992852930018521
6.574,-0.07568882236798447
6.5760000000000005,-0.09676098763319527
6.578,-0.032426553841707006
6.58,-0.1238311291046698
6.582,-0.08708223986885773
6.5840000000000005,-0.0766686067836871
6.586,-0.0959310778256302
6.588,-0.1115041375229783
6.59,-0.08200757427320585
6.5920000000000005,-0.06851888972098955
6.594,-0.09400972918789474
6.596,-0.1227949859601639
6.598,-0.13021600153475774
6.6000000000000005,-0.10220700384544223
6.602,-0.09855697100363148
6.604,-0.09538547141378978
6.606,-0.1045002804879949
6.6080000000000005,-0.08826970575222116
6.61,-0.1310797424240639
6.612,-0.11097451770166548
6.614,-0.10116545118818716
6.6160000000000005,-0.07784159816387293
6.618,-0.12835974323418878
6.62,-0.10849184058303811
6.622,-0.08340232413281767
6.6240000000000006,-0.09911797405561845
6.626,-0.0958433590703353
6.628,-0.07616835841625498
6.63,-0.08895843622744438
6.632000000000001,-0.0865852365226019
6.634,-0.07256775654473735
6.636,-0.08269891384695507
6.638,-0.07458303596813062
6.640000000000001,-0.052132638934156136
6.642,-0.06636185529538763
6.644,-0.0518406715565221
6.646,-0.07488894883147264
6.648000000000001,-0.10371290319933872
6.65,-0.04189525654181194
6.652,-0.045850534268459246
6.654,-0.0664576976777277
6.656000000000001,-0.03864060881865206
6.658,-0.04162560676446853
6.66,-0.0210120012709938
6.662,-0.02756767301784034
6.664,-0.03261770085996602
6.666,-0.0438046755368916
6.668,-0.034336240359644325
6.67,-0.033744289564286684
6.672,-0.0035237850464740067
6.674,-0.02879379106453038
6.676,-0.029785733705489606
6.678,-0.01591349693421633
6.68,-0.007018944384190713
6.682,0.021435300337682046
6.684,0.007084204067256107
6.686,-0.016846023640465835
6.688,0.003476098670156906
6.69,-0.019854380836843936
6.692,-0.014575473324566116
6.694,0.05039135441937291
6.696,0.01962485043193702
6.698,0.00900573666339903
6.7,-0.0006858744396490042
6.702,0.010906043746820804
6.704,0.00483212944144713
6.706,0.017451558458154538
6.708,0.04147270900287543
6.71,0.04994614215673054
6.712,0.024206080664311874
6.714,0.011533990053393315
6.716,0.020714707171343043
6.718,0.04958068888034722
6.72,0.007248837736991608
6.722,0.06815417164403946
6.724,0.018870253282374738
6.726,0.04989691845555856
6.728,0.023694728933504845
6.73,0.05151587867270403
6.732,0.011744638563394845
6.734,0.02439304015142736
6.736,0.01899850297605333
6.738,0.05320628549831699
6.74,0.039263035475261915
6.742,0.027423738178513804
6.744,0.03272080334544636
6.746,0.04131794283368859
6.748,0.039947067876312956
6.75,0.011924406705094176
6.752,0.03673723510521098
6.7540000000000004,-0.008211792007455004
6.756,0.04118321619904455
6.758,0.04249050058412752
6.76,0.05760636259168915
6.7620000000000005,0.018291654581415115
6.764,0.03145154159932852
6.766,0.01983525621502704
6.768,0.06719066197005952
6.7700000000000005,-0.001467864012736675
6.772,0.02935039619626154
6.774,0.01723520863861218
6.776,0.019968808223061556
6.7780000000000005,0.02792080887061053
6.78,0.019442282630767048
6.782,0.032392998852076714
6.784,-0.0023334237422946726
6.7860000000000005,0.033200223836168025
6.788,0.04539773060448991
6.79,0.030029345234437625
6.792,-0.004379821966969919
6.7940000000000005,0.03879048692604007
6.796,0.013478654211938107
6.798,0.059957832418578084
6.8,0.010892059471566299
6.8020000000000005,0.029208418267740857
6.804,0.012988063866314842
6.806,0.05986712234770943
6.808,0.033603480247919114
6.8100000000000005,0.018732943744644546
6.812,0.01809216848027564
6.814,0.03710071881535031
6.816,0.0015390104704798998
6.8180000000000005,0.01197937446675264
6.82,0.0052620252813506485
6.822,0.01824776607548035
6.824,0.026609522535624503
6.8260000000000005,0.04732944108749422
6.828,0.00792448990635832
6.83,0.00832680920185473
6.832,0.007658585824344009
6.8340000000000005,0.02997166531772264
6.836,0.0059450213777664926
6.838,0.028217842625362657
6.84,0.01262684217774157
6.8420000000000005,0.011455718819603907
6.844,0.01100883889668423
6.846,-0.004814471460114666
6.848,-0.0032676476758290267
6.8500000000000005,0.0043996962969309
6.852,0.033330163686060996
6.854,0.00295324776448573
6.856,0.03375638717428463
6.8580000000000005,0.015263773203784956
6.86,0.06113123467118191
6.862,0.020213708788535147
6.864,0.01949691513027315
6.8660000000000005,0.05184847441604524
6.868,0.028997329184827992
6.87,0.01747549268852136
6.872,0.010369899369637947
6.8740000000000006,0.07766727384668409
6.876,0.010766862756491302
6.878,0.06399749525797988
6.88,0.028295752671180945
6.882000000000001,0.03506079873749736
6.884,0.06121557312697733
6.886,0.010050367046859247
6.888,0.006360704576368486
6.890000000000001,0.06343746822851294
6.892,0.025605524364987732
6.894,0.03037320647309809
6.896,0.04688820288926958
6.898000000000001,0.06685635702140041
6.9,0.056499801403418246
6.902,0.03159389936795487
6.904,0.017652499252693882
6.906000000000001,0.06160453245868164
6.908,0.10543344283384158
6.91,0.06454650639264767
6.912,0.07396528133255316
6.914,0.04205504850418572
6.916,0.07729385726991458
6.918,0.043024051551344214
6.92,0.07018815550260189
6.922,0.03679529708049786
6.924,0.10715403245719299
6.926,0.0951765646759599
6.928,0.06927580297584246
6.93,0.07915312565873023
6.932,0.08931592286914267
6.934,0.08953520609464805
6.936,0.1247873524470217
6.938,0.09564229445783674
6.94,0.12591770802499083
6.942,0.11016331009622496
6.944,0.10028322299170332
6.946,0.08577614553434489
6.948,0.10796470075603105
6.95,0.0753102376230129
6.952,0.1144125501994626
6.954,0.1344319959021099
6.956,0.09934568307464568
6.958,0.1018595888421813
6.96,0.07537626931393623
6.962,0.07493314278390305
6.964,0.14356058333295957
6.966,0.0952310939802504
6.968,0.11638583652949375
6.97,0.10507737707149387
6.972,0.10707817384077342
6.974,0.08028289503204741
6.976,0.10507682790215156
6.978,0.0633012330805072
6.98,0.07863663191811704
6.982,0.07317213112243937
6.984,0.11252770269453305
6.986,0.08901096339381233
6.988,0.052701333661316296
6.99,0.09740114294010974
6.992,0.06515396170687122
6.994,0.07017436588436675
6.996,0.034595420682041494
6.998,0.04812852497362495
7.0,0.044434217051410846
7.002,0.014905800156766881
7.0040000000000004,0.03783457281577543
7.006,0.02392886699506946
7.008,0.022792678513513062
7.01,0.0024606025520858103
7.0120000000000005,0.009991582942559894
7.014,-5.019629138442935e-06
7.016,0.01749786838109336
7.018,-0.0016021383141991037
7.0200000000000005,-0.04679981752004322
7.022,-0.02584058274860955
7.024,-0.034784906201252436
7.026,-0.013065972606224753
7.0280000000000005,-0.04987161708715901
7.03,-0.04112502698712807
7.032,-0.08144754320539956
7.034,-0.08347979219649695
7.0360000000000005,-0.06201976391743383
7.038,-0.1078770179711851
7.04,-0.08178913762863119
7.042,-0.08162818598524499
7.0440000000000005,-0.08753828832789089
7.046,-0.08844564347034764
7.048,-0.049233702561097714
7.05,-0.048710248553950425
7.0520000000000005,-0.017669832800870006
7.054,-0.04049559010436923
7.056,-0.04121801171699707
7.058,0.050205429856873394
7.0600000000000005,0.07769128541536613
7.062,0.05576611389536271
7.064,0.11099308833969676
7.066,0.13402219766491452
7.0680000000000005,0.22706903078994872
7.07,0.22979774936976635
7.072,0.3009013104437387
7.074,0.300030053028026
7.0760000000000005,0.4030320911436862
7.078,0.476804102228386
7.08,0.5207426091402424
7.082,0.5247394769179866
7.0840000000000005,0.6312194040454709
7.086,0.6597348751213806
7.088,0.7275576974448892
7.09,0.6977369039496207
7.0920000000000005,0.7995763553426904
7.094,0.8275342865257596
7.096,0.8917832992575007
7.098,0.9057068147292476
7.1000000000000005,0.8933066783730406
7.102,0.9461666130572329
7.104,1.0003364013365694
7.106,0.9766070851077618
7.1080000000000005,0.9673105576655183
7.11,0.9288128841416045
7.112,0.9344961403608338
7.114,0.9387053842418543
7.1160000000000005,0.9215721445017347
7.118,0.8741202941345676
7.12,0.8553827465231761
7.122,0.8503908872643376
7.1240000000000006,0.7977303462318368
7.126,0.775087403375873
7.128,0.7053567277284845
7.13,0.6762569213972639
7.132000000000001,0.60438720696038
7.134,0.5754662226621483
7.136,0.5191647132159941
7.138,0.4536382422059226
7.140000000000001,0.43377868518053797
7.142,0.4076395589806577
7.144,0.30828625387259545
7.146,0.29588501498525327
7.148000000000001,0.2485807729863255
7.15,0.19727159993822366
7.152,0.14317212683080555
7.154,0.12224588418788968
7.156000000000001,0.07341139594598277
7.158,0.05793987652495188
7.16,0.06024053162366869
7.162,-0.0049425749718787215
7.164000000000001,0.001818491126671519
7.166,-3.998657536380054e-05
7.168,-0.017641598646910457
7.17,-0.04278577777647561
7.172,0.00046209738717970395
7.174,-0.0717883930122229
7.176,-0.01596534773630908
7.178,-0.0702658394934337
7.18,-0.06342947185749905
7.182,-0.023930413021830115
7.184,-0.039646188544637286
7.186,-0.0541126678029981
7.188,-0.05630782621066104
7.19,-0.04113375101676121
7.192,-0.03842306566497468
7.194,-0.022427441847573643
7.196,-0.043105751335614326
7.198,-0.013998029745333757
7.2,-0.037718675660292765
7.202,-0.03814765114853857
7.204,-0.0321996180706368
7.206,-0.025589478627527282
7.208,-0.043776418391778635
7.21,-0.012649694571303194
7.212,-0.01809941539909994
7.214,-0.02712794399303669
7.216,-0.02949760643489566
7.218,-0.0121835800296074
7.22,0.010080080762950425
7.222,-0.07630104610053719
7.224,-0.019577505050987216
7.226,0.0008061805335145688
7.228,-0.013137713997151733
7.23,-0.02232009624204499
7.232,-0.03969526286698245
7.234,-0.0443038701324699
7.236,-0.02423834500721302
7.238,-0.03683832301566316
7.24,-0.03635088736696014
7.242,-0.04310170987226482
7.244,-0.04850970857402185
7.246,-0.044257438183855254
7.248,-0.032363652540128074
7.25,-0.01728291034688544
7.252,-0.02042911688148309
7.2540000000000004,-0.01714029238270337
7.256,-0.04047339606414463
7.258,-0.01879844921728934
7.26,-0.04775099209325633
7.2620000000000005,-0.051783300806866245
7.264,-0.04718827211630833
7.266,-0.03187534611446928
7.268,-0.05785189778144309
7.2700000000000005,-0.060981620520168006
7.272,-0.06246266714635229
7.274,-0.05152106931360023
7.276,-0.03601671043010437
7.2780000000000005,-0.047474842369192624
7.28,-0.04640426670883987
7.282,-0.03223743854151136
7.284,0.001492372493511272
7.2860000000000005,-0.02611901183438718
7.288,-0.0180944375343633
7.29,-0.06884580232376236
7.292,-0.02661908680977386
7.2940000000000005,-0.03495520565181826
7.296,-0.03095385836397757
7.298,-0.045052698437270965
7.3,0.001477123601179449
7.3020000000000005,-0.05790562706151148
7.304,-0.032159744623580525
7.306,-0.06739135388915272
7.308,-0.05396530142644402
7.3100000000000005,-0.015951757342502152
7.312,-0.038224625915086644
7.314,-0.04461893107949681
7.316,-0.053552393149138657
7.3180000000000005,-0.03588502649583196
7.32,-0.020511359969581866
7.322,-0.021375154591315886
7.324,-0.054810842329203774
7.3260000000000005,-0.03724134858634737
7.328,-0.023458053212903777
7.33,-0.06574965526529514
7.332,-0.0490810688372483
7.3340000000000005,-0.019426760980102282
7.336,-0.054404972988392246
7.338,-0.06348893443708549
7.34,-0.08671571077750354
7.3420000000000005,-0.0660533326425078
7.344,-0.04499836700529336
7.346,-0.07063259450386976
7.348,-0.07481841647386074
7.3500000000000005,-0.06671153833328698
7.352,-0.05984114984752418
7.354,-0.048441163393136144
7.356,-0.10783989407090365
7.3580000000000005,-0.09347546258168135
7.36,-0.07337322170200722
7.362,-0.09359399866583733
7.364,-0.0769617021035936
7.3660000000000005,-0.07592542953236182
7.368,-0.07690593300970605
7.37,-0.0909607312210726
7.372,-0.10686723465101455
7.3740000000000006,-0.12819852658156952
7.376,-0.057816597827104674
7.378,-0.09883913442509676
7.38,-0.12511039363810086
7.382000000000001,-0.12064285514776388
7.384,-0.09822802881154372
7.386,-0.11687017843219615
7.388,-0.12016972965286729
7.390000000000001,-0.17149350768438523
7.392,-0.11057980031689388
7.394,-0.15584850569157363
7.396,-0.12090702150493746
7.398000000000001,-0.13226673210054835
7.4,-0.12272214642923404
7.402,-0.1503095650984964
7.404,-0.14370333486300602
7.406000000000001,-0.17778614983272678
7.408,-0.15297677897965795
7.41,-0.183932900434406
7.412,-0.18851428175651613
7.414000000000001,-0.1855094584833436
7.416,-0.16082291855058478
7.418,-0.1443657691919799
7.42,-0.1798578358384537
7.422000000000001,-0.17600302009422836
7.424,-0.16685266917246525
7.426,-0.17009944660929274
7.428,-0.18226665279965698
7.43,-0.1868468854087021
7.432,-0.19631286939030168
7.434,-0.14962037548968446
7.436,-0.20284534406745242
7.438,-0.1870132727138626
7.44,-0.20846647309794147
7.442,-0.22866009917209745
7.444,-0.20085960999452884
7.446,-0.1722959215993901
7.448,-0.15060771889889363
7.45,-0.20171157657077668
7.452,-0.18573203332644905
7.454,-0.23126174323935766
7.456,-0.2007554162812836
7.458,-0.20175928384179448
7.46,-0.23419600979969762
7.462,-0.21964736333280968
7.464,-0.1951894075690594
7.466,-0.21247842863052413
7.468,-0.18190330842238545
7.47,-0.21833348688146384
7.472,-0.19519048898186414
7.474,-0.16812525699262043
7.476,-0.16868852692957217
7.478,-0.19882752940276435
7.48,-0.21019522040251581
7.482,-0.17649228162057257
7.484,-0.19612538814961497
7.486,-0.18514090556274923
7.488,-0.1634174021776156
7.49,-0.1854639541827803
7.492,-0.1651934483137978
7.494,-0.14298555774668578
7.496,-0.17661498112265256
7.498,-0.14803872688688777
7.5,-0.17542549338111016
7.502,-0.1314187049807618
7.5040000000000004,-0.14626810246423289
7.506,-0.15666871691222878
7.508,-0.17577851437203745
7.51,-0.14672795916347087
7.5120000000000005,-0.12939656084869242
7.514,-0.16674870114262696
7.516,-0.11940433163800501
7.518,-0.11930906201490475
7.5200000000000005,-0.10805544166992392
7.522,-0.12074116971516938
7.524,-0.12338554393320549
7.526,-0.14156405283938478
7.5280000000000005,-0.10041932118158348
7.53,-0.09641911169376319
7.532,-0.12411308500788522
7.534,-0.09077625149502
7.5360000000000005,-0.10355954618273372
7.538,-0.09183007420813064
7.54,-0.13402731252051348
7.542,-0.1109402861360351
7.5440000000000005,-0.1243438139366263
7.546,-0.0879807410147754
7.548,-0.10733659935195894
7.55,-0.06962240115161031
7.5520000000000005,-0.09554274997924381
7.554,-0.08580237409722097
7.556,-0.09218937171920344
7.558,-0.056641815977847586
7.5600000000000005,-0.08408435309242411
7.562,-0.06250685303593619
7.564,-0.07603424281393424
7.566,-0.0907719159308226
7.5680000000000005,-0.08355953131752868
7.57,-0.051254387674410845
7.572,-0.06195581446730265
7.574,-0.08087570841580426
7.5760000000000005,-0.05424870356318956
7.578,-0.03303539460455408
7.58,-0.0350759086395542
7.582,-0.07126324905144715
7.5840000000000005,-0.07280420605057272
7.586,-0.042586963350437754
7.588,-0.06772046813534625
7.59,-0.06381749500566328
7.5920000000000005,-0.07249666463510593
7.594,-0.03287540828322174
7.596,-0.10448226901018813
7.598,-0.00016925834448636417
7.6000000000000005,-0.04084224808415764
7.602,-0.07425777847027652
7.604,-0.05147930646630563
7.606,-0.03830557125637823
7.6080000000000005,-0.04279609617526917
7.61,-0.03387728380409926
7.612,-0.011965267551921604
7.614,-0.03957936250117791
7.6160000000000005,-0.07354959045138301
7.618,-0.08096832301446275
7.62,-0.03389755803557376
7.622,-0.017369881681410394
7.6240000000000006,-0.07074998337663878
7.626,-0.04383613575167339
7.628,-0.03047315719711452
7.63,-0.03593703951348855
7.632000000000001,-0.024859554579254612
7.634,-0.08144074602264213
7.636,-0.049083311200818006
7.638,-0.05539910176778931
7.640000000000001,-0.0485984337874848
7.642,-0.02909246587612698
7.644,-0.06611888670428913
7.646,-0.019096138410732592
7.648000000000001,-0.029796055231950187
7.65,-0.05085161031641505
7.652,-0.07132464994704765
7.654,-0.03836333797831378
7.656000000000001,-0.05926206317102539
7.658,-0.06182514834903155
7.66,-0.051010681885242215
7.662,-0.06731992241701602
7.664000000000001,-0.04111277449028297
7.666,-0.05583346272106288
7.668,-0.0914435437804009
7.67,-0.039927147453801166
7.672000000000001,-0.004031607808906979
7.674,-0.04057943462726324
7.676,-0.04839313495624298
7.678,-0.06747332069141976
7.68,-0.025892367353746747
7.682,-0.03508632867862771
7.684,-0.014961798073279393
7.686,-0.059823880648780046
7.688,0.0014742574446591176
7.69,-0.06674091049804125
7.692,-0.021150255959012505
7.694,-0.008815657652252971
7.696,-0.03106510499105011
7.698,-0.05493061212389253
7.7,-0.05004373855868485
7.702,-0.0493144807078505
7.704,-0.030094046091823062
7.706,-0.028306472793632662
7.708,-0.04444471688231478
7.71,-0.048764150288990046
7.712,-0.02993545651760608
7.714,-0.03489878739861859
7.716,-0.03745949275329385
7.718,-0.06236864286137236
7.72,-0.028077771722849115
7.722,-0.021980871819751863
7.724,-0.015597919022690252
7.726,-0.037437117964545574
7.728,-0.02855447947534091
7.73,-0.044868863387479405
7.732,-0.051618459660653884
7.734,-0.04279171004400051
7.736,-0.014852456892345238
7.738,-0.019266001740417198
7.74,-0.03185984120227852
7.742,0.011028739328490314
7.744,-0.03531906980657051
7.746,-0.003853445468025768
7.748,0.009262047209882059
7.75,-0.009414790974094651
7.752,-0.02350508357334382
7.7540000000000004,-0.013381470962095028
7.756,0.0013556786945953907
7.758,0.009411383041489148
7.76,-0.02779943251376407
7.7620000000000005,0.03958538343299807
7.764,-0.005766856114181089
7.766,0.016910392692850777
7.768,0.005146167398044771
7.7700000000000005,0.014275788534552102
7.772,-0.029888555167116616
7.774,0.030835989921682416
7.776,0.028000956619925462
7.7780000000000005,0.013594946437187776
7.78,0.02277298931180826
7.782,0.03494554307422144
7.784,0.0791389141373764
7.7860000000000005,-0.0017738038380685772
7.788,-0.0036287281657575443
7.79,0.041815064979383476
7.792,0.07982811838404827
7.7940000000000005,0.048452062472354104
7.796,0.04882455414802128
7.798,0.04947585318340496
7.8,0.04547670681500786
7.8020000000000005,0.043594051581307705
7.804,0.08866879029424107
7.806,0.041585816824199304
7.808,0.08761092067948446
7.8100000000000005,0.06160652381500279
7.812,0.05662363884931986
7.814,0.031230186505493612
7.816,0.08671536356164238
7.8180000000000005,0.05754712755917748
7.82,0.07955426347637108
7.822,0.09835404268501936
7.824,0.10408194855084307
7.8260000000000005,0.0896196796882685
7.828,0.04865074476307128
7.83,0.05976942115615963
7.832,0.06592700854197961
7.8340000000000005,0.04069156810894821
7.836,0.04933477452914559
7.838,0.04557233115091437
7.84,0.044570215003629024
7.8420000000000005,0.033378003210568136
7.844,0.07954742626519379
7.846,0.037472770714492246
7.848,0.026017147694162315
7.8500000000000005,0.045919910674383176
7.852,0.06079113249268822
7.854,0.020662357198224554
7.856,0.019699181036458333
7.8580000000000005,-0.0016648673650807924
7.86,0.04934260479934479
7.862,-0.011686531244490518
7.864,0.033860407587938096
7.8660000000000005,0.00845271999738367
7.868,0.01755222628297644
7.87,0.01343018179579329
7.872,-0.05927156908888698
7.8740000000000006,-0.021952725350076686
7.876,-0.04590465100189158
7.878,-0.0232743330612
7.88,-0.07399546300279111
7.882000000000001,-0.06044384932831559
7.884,-0.07257067334611714
7.886,-0.052846947485007546
7.888,-0.08034885117098568
7.890000000000001,-0.09881930037505397
7.892,-0.07830059257698245
7.894,-0.12163747824586793
7.896,-0.08285528206497829
7.898000000000001,-0.08735719099175175
7.9,-0.103976871475461
7.902,-0.10079180769696566
7.904,-0.11045126235478411
7.906000000000001,-0.08310434583489229
7.908,-0.028562181568328848
7.91,-0.03585754018923757
7.912,-0.02657562016587764
7.914000000000001,-0.027821734148640177
7.916,0.018490981617362755
7.918,0.08059325755005785
7.92,0.08538748708583133
7.922000000000001,0.1423663130272022
7.924,0.17680346405320874
7.926,0.2022361148908372
7.928,0.2536551015412692
7.930000000000001,0.2855182827742983
7.932,0.38732677904233065
7.934,0.451556260307089
7.936,0.5078280564445886
7.938,0.5304001040062624
7.94,0.5943367214125764
7.942,0.6083021378298783
7.944,0.6946243028440096
7.946,0.7144799800358225
7.948,0.7847719466775754
7.95,0.8091888764673756
7.952,0.8672373329554945
7.954,0.8983448429099431
7.956,0.9515624767610942
7.958,0.9691235054248949
7.96,0.9495889404902108
7.962,0.9800418247086591
7.964,0.9824617389834388
7.966,1.0019369266564429
7.968,0.9423715765781128
7.97,0.9125929024100401
7.972,0.9433332685053091
7.974,0.9008328228701432
7.976,0.8865633793410697
7.978,0.8578767645192181
7.98,0.8688858441003563
7.982,0.8298350151149583
7.984,0.7798974425519174
7.986,0.730494584956858
7.988,0.6444103623895786
7.99,0.64199556197423
7.992,0.5470544138050939
7.994,0.4896877868529236
7.996,0.4672831868510188
7.998,0.42203164484113453
8.0,0.3722938980437076
8.002,0.30557008162745286
8.004,0.2884667717212889
8.006,0.2646240480347427
8.008000000000001,0.25262903814987825
8.01,0.17514867064808243
8.012,0.13001442531653523
8.014,0.12561759619464888
8.016,0.09527361079916132
8.018,0.08480814698105751
8.02,0.02033679140545727
8.022,0.05361566103753906
8.024000000000001,0.027383785271855587
8.026,-0.009587939416544906
8.028,-0.002971879398077371
8.03,0.028884745816648294
8.032,0.015562990056835268
8.034,0.011998357369727188
8.036,-0.03314356695928321
8.038,-0.05203161738972824
8.040000000000001,-0.012672760379872456
8.042,0.01018497359079424
8.044,-0.030834246820756236
8.046,-0.0026088256861055356
8.048,-0.023829905708626423
8.05,-0.0124031351633579
8.052,-0.008686191860943895
8.054,0.004818573082309834
8.056000000000001,0.010405108992541576
8.058,-0.034304266228989036
8.06,-0.011341013008228184
8.062,0.018171702283396922
8.064,-0.013993201615404668
8.066,0.020584102061163522
8.068,-0.022676872354152524
8.07,0.016030043924068798
8.072000000000001,0.01776561303237638
8.074,0.001641991822650802
8.076,0.010153471471250543
8.078,0.026163343034952203
8.08,0.0413636551643266
8.082,0.0012264724724624133
8.084,0.026602551707149626
8.086,0.03902805143385992
8.088000000000001,0.013163917948267084
8.09,0.01848219410014149
8.092,0.012484633807374572
8.094,0.006276903110223864
8.096,-0.008991649258466945
8.098,-0.0053336989856269295
8.1,0.02102118806738689
8.102,0.02327127888198405
8.104000000000001,0.009422259782227703
8.106,0.014206101420007057
8.108,0.04611703834646863
8.11,0.008447367046124454
8.112,0.011793386135885806
8.114,0.026141199973518527
8.116,-0.01968885454821849
8.118,-0.0058840176371762875
8.120000000000001,0.028613423992595078
8.122,0.01776884216258224
8.124,0.025118676207123568
8.126,0.026881111644198527
8.128,0.029500745213362038
8.13,0.007445915854986968
8.132,0.018474079617389394
8.134,-0.0024922163881673197
8.136000000000001,0.071140517839875
8.138,0.019996849647247253
8.14,0.038773282101031877
8.142,0.0017029840379889159
8.144,0.037489059288221056
8.146,0.011270699559572692
8.148,0.0328436472292826
8.15,0.024602667494996823
8.152000000000001,0.03505236830679582
8.154,0.032561689520308565
8.156,0.0070245345506366975
8.158,0.029419889743496797
8.16,-0.009800561149409755
8.162,0.0644283248133036
8.164,0.008682619889053014
8.166,0.02514239365811472
8.168000000000001,0.005160594550632894
8.17,0.010612714262323762
8.172,0.05018856314223446
8.174,0.00690093924651848
8.176,0.02456872855347436
8.178,0.021444376504861112
8.18,0.03413451292883368
8.182,0.0682516278435211
8.184000000000001,0.02455398542795919
8.186,0.054602176912940587
8.188,0.009507528895318728
8.19,0.012913004163573041
8.192,-0.008708711556461973
8.194,-0.017633685663563863
8.196,0.002533440751339402
