time,ecg
0.0,-0.014682220617312282
0.002,-0.01218814893260112
0.004,-0.008775266626818889
0.006,-0.003669896214855605
0.008,-0.014602180549058381
0.01,0.0005623931942976804
0.012,-0.040751062697895996
0.014,0.026576637749990816
0.016,0.011621604410931526
0.018000000000000002,-0.0024733641600044164
0.02,-0.009963183739533563
0.022,0.009928967385426682
0.024,0.023339925018072707
0.026000000000000002,-0.02228483998908953
0.028,-0.01411630457506643
0.03,-0.00011296997560712729
0.032,0.02721352244936397
0.034,0.005641717475103534
0.036000000000000004,0.005914756212394963
0.038,0.05736681066671622
0.04,0.02090443554712617
0.042,0.04700958574173751
0.044,0.04608242568346767
0.046,0.047853064059935106
0.048,0.08494887053277884
0.05,0.03657564784205052
0.052000000000000005,0.06269924304357366
0.054,0.03179315524473501
0.056,0.045790371296978195
0.058,0.049716695765593184
0.06,0.05399116465941831
0.062,0.11104567110612355
0.064,0.07491146965678333
0.066,0.06888827887099494
0.068,0.054253186640321936
0.07,0.10726605308565336
0.07200000000000001,0.06416767193932853
0.074,0.12052427184488451
0.076,0.11393890659279346
0.078,0.07686675364584022
0.08,0.08516154440809989
0.082,0.07605521365877096
0.084,0.09589232193766806
0.08600000000000001,0.1387357068398656
0.088,0.12358633477167523
0.09,0.1098918563472297
0.092,0.10099109719180487
0.094,0.13561062912208666
0.096,0.10201962469438675
0.098,0.12132439289910399
0.1,0.10803273858788458
0.10200000000000001,0.09490174777496788
0.10400000000000001,0.14979026614893703
0.106,0.11561966020785411
0.108,0.11737517502597006
0.11,0.11607572544474876
0.112,0.10382321222485366
0.114,0.11325857518126509
0.116,0.11762989799309431
0.11800000000000001,0.10197409421160683
0.12,0.09427694443307325
0.122,0.12513721511824943
0.124,0.12069862507261536
0.126,0.07673085557167586
0.128,0.09265375712213601
0.13,0.08308364611080339
0.132,0.09550202590817886
0.134,0.04944131402603921
0.136,0.0682675150412648
0.138,0.09221444525414876
0.14,0.03900234503356888
0.14200000000000002,0.03647689771606209
0.14400000000000002,0.09277301696619786
0.146,0.07543419067453924
0.148,0.024055959309508015
0.15,0.03072529814023181
0.152,-0.007440696046543887
0.154,0.03526429724601693
0.156,0.03873540279000789
0.158,0.01307750950496481
0.16,0.01847151683532332
0.162,-0.002200040210665043
0.164,-0.004756012267128967
0.166,0.011722383387091789
0.168,-0.015511520332375538
0.17,0.001374673498484795
0.17200000000000001,-0.034081354718678666
0.17400000000000002,-0.02828625530756293
0.176,-0.025851419992752193
0.178,-0.05116549107924257
0.18,-0.047147698023018145
0.182,-0.09004750724112436
0.184,-0.04675939289690255
0.186,-0.07101033667673526
0.188,-0.020157427732512154
0.19,-0.07437944220897821
0.192,0.006754631326739084
0.194,-0.039310610614707704
0.196,-0.025672271023219714
0.198,0.019377333667018534
0.2,0.03634496967681593
0.202,0.09252651871694717
0.20400000000000001,0.08578539975638905
0.20600000000000002,0.13780691047707164
0.20800000000000002,0.170315106751915
0.21,0.2605105988255292
0.212,0.272245115283729
0.214,0.31777605201872655
0.216,0.3314621619273339
0.218,0.3935683737353392
0.22,0.47749917559663807
0.222,0.5377101458047628
0.224,0.5581525805143331
0.226,0.6209118986951419
0.228,0.6757591323378982
0.23,0.7347358350799237
0.232,0.7877014517409934
0.234,0.8223169775290665
0.23600000000000002,0.8914903735448548
0.23800000000000002,0.9176900941038048
0.24,0.907752818067933
0.242,0.9725491048986658
0.244,0.9480853725123284
0.246,1.036224597411074
0.248,1.0085174190158208
0.25,0.9902962291410183
0.252,1.0044980554280307
0.254,1.027112629921642
0.256,1.0197548979743816
0.258,0.9830748796509233
0.26,0.9934936903107334
0.262,0.941188050895456
0.264,0.9106276090856953
0.266,0.8321212406398456
0.268,0.8220922963927005
0.27,0.7745811206582034
0.272,0.7409214168255004
0.274,0.660741417951537
0.276,0.668103824975337
0.278,0.5870203281973445
0.28,0.5381416695100291
0.28200000000000003,0.4673040105155531
0.28400000000000003,0.43674274107066163
0.28600000000000003,0.3882019467580632
0.28800000000000003,0.34702450167578935
0.29,0.30474794794024973
0.292,0.24814820499301538
0.294,0.25635569136847375
0.296,0.2084111838879178
0.298,0.194353449653697
0.3,0.14510206014186833
0.302,0.13969056212023637
0.304,0.10867547823889578
0.306,0.110012701391038
0.308,0.11058124159286749
0.31,0.0707109041662829
0.312,0.022066006396291415
0.314,0.058843024184562887
0.316,0.03783434557831726
0.318,-0.000450661704281893
0.32,0.048112258640492574
0.322,0.011896099014273867
0.324,0.028402196135711114
0.326,0.05220045988128928
0.328,0.02065810574882783
0.33,0.019367290565427023
0.332,0.023652756427636465
0.334,0.04922504188101684
0.336,0.04271263466362232
0.338,0.007617719437801455
0.34,0.020935703048510338
0.342,0.041378571934782234
0.34400000000000003,0.031111166992608845
0.34600000000000003,0.03865151509156943
0.34800000000000003,0.01183065338405227
0.35000000000000003,0.030220473507138
0.352,0.052769571418850976
0.354,0.0870873552735715
0.356,0.017474059915550157
0.358,0.05297212256089525
0.36,0.018141301036202543
0.362,0.036216222653528474
0.364,0.034883683058215396
0.366,0.07254005041070338
0.368,0.0630318772918619
0.37,0.052226791337543196
0.372,0.042225013359778976
0.374,0.06088053332495755
0.376,0.04312976939261767
0.378,0.051608290904170954
0.38,0.00860408314174092
0.382,0.031821179691649694
0.384,0.06710025420347782
0.386,0.037281434206722766
0.388,0.05807301000208831
0.39,0.032170522667823706
0.392,0.01209390518687609
0.394,0.05192336992052713
0.396,0.023093873200599472
0.398,0.02236408842622172
0.4,0.05295051811763891
0.402,0.07586974371907218
0.404,0.049858323438216556
0.406,0.04365476005490934
0.40800000000000003,0.03563683764469232
0.41000000000000003,0.03718863338288721
0.41200000000000003,0.061139713666847104
0.41400000000000003,0.032262478054511295
0.41600000000000004,0.0515445681693945
0.418,0.020538789995347768
0.42,0.06993500064250403
0.422,0.046536996935870455
0.424,0.020819526392569645
0.426,0.06479959831918673
0.428,0.02073931137764759
0.43,0.09354053382775067
0.432,0.0671057610836314
0.434,0.029218627191733088
0.436,0.08175439189043748
0.438,0.052221365554368876
0.44,0.04906609499130481
0.442,0.06958011729120678
0.444,0.04016751978778839
0.446,0.029579694857705462
0.448,0.04491838812335483
0.45,0.03106938620706119
0.452,0.04323393940521077
0.454,0.04631529562806751
0.456,0.04600431341959151
0.458,0.06633075746296302
0.46,0.03893151390200894
0.462,0.06905848422284479
0.464,0.07801982372945761
0.466,0.06495467919053183
0.468,0.049003984941108
0.47000000000000003,0.04209406903554191
0.47200000000000003,0.018670052390817253
0.47400000000000003,0.029267865483832003
0.47600000000000003,0.05304585471990366
0.47800000000000004,0.0398245047883544
0.48,0.028266944931863946
0.482,0.018923271277738983
0.484,0.029015550562085917
0.486,0.030048824269445676
0.488,0.0053406718866686916
0.49,0.018165324177637516
0.492,0.019634212193352568
0.494,0.012570247980529779
0.496,0.01712322948412576
0.498,0.037927402764270514
0.5,0.025326065802326332
0.502,0.030294818261226118
0.504,0.010597411538220212
0.506,-0.0018245753829392586
0.508,0.013214362423858365
0.51,0.030636093584963713
0.512,0.02157735707155034
0.514,0.041920087269119256
0.516,0.011394704239861338
0.518,0.010996252132091384
0.52,-0.030726512061231923
0.522,-0.014535824658960673
0.524,-0.011807253781840873
0.526,-0.007746878041621358
0.528,-0.018391178729330472
0.53,-0.011224785717065158
0.532,-0.032290274643728384
0.534,-0.018605351399394662
0.536,-0.03333693687639537
0.538,-0.055048792273659275
0.54,-0.05265103759078157
0.542,-0.057864522857983325
0.544,-0.06125785372226897
0.546,-0.05371628946822869
0.548,-0.04971611375185128
0.55,-0.03516109162732342
0.552,-0.07446089607702093
0.554,-0.04359446504372376
0.556,-0.07837362612695666
0.558,-0.02487277788657126
0.56,-0.07276496591542292
0.562,-0.11687210376747845
0.5640000000000001,-0.09417457341101847
0.5660000000000001,-0.0705273793595626
0.5680000000000001,-0.08539324078187888
0.5700000000000001,-0.06896801549128317
0.5720000000000001,-0.0852291093392962
0.5740000000000001,-0.09600690855401273
0.5760000000000001,-0.06279891493642671
0.578,-0.09804765814876182
0.58,-0.11144822844068974
0.582,-0.08042897262315156
0.584,-0.08916409966390931
0.586,-0.09896009209682644
0.588,-0.09407921935860442
0.59,-0.11634766006856406
0.592,-0.11131135893851553
0.594,-0.08165624837637336
0.596,-0.15278922605499037
0.598,-0.09828455836315453
0.6,-0.09444723745961059
0.602,-0.11551046520982958
0.604,-0.08945658263388354
0.606,-0.0700887048992607
0.608,-0.10815693537886252
0.61,-0.09208942541603712
0.612,-0.11034947420622451
0.614,-0.10540833882569905
0.616,-0.0939497822744757
0.618,-0.0901974249900775
0.62,-0.07454148188577474
0.622,-0.0752076450450232
0.624,-0.0721464781699844
0.626,-0.0876557773340905
0.628,-0.0740637300984293
0.63,-0.08192636037788652
0.632,-0.04611054851509147
0.634,-0.06665625539131381
0.636,-0.0713616647116917
0.638,-0.09901827001075125
0.64,-0.12083061677427209
0.642,-0.0619290192640691
0.644,-0.08312485436322428
0.646,-0.09368594740760755
0.648,-0.038972175119721314
0.65,-0.06404536570680242
0.652,-0.07127388905321774
0.654,-0.006239782967127003
0.656,-0.024646658632500512
0.658,-0.05911307265242353
0.66,-0.06743086761379122
0.662,-0.019481504705946187
0.664,-0.03176596076489778
0.666,-0.029582811121109623
0.668,-0.0385151645115077
0.67,-0.006193170677343235
0.672,-0.04432000057322234
0.674,-0.07998984208423271
0.676,-0.00015209539019307716
0.678,-0.00529386651706408
0.68,0.006522660849205067
0.682,0.013735712755679502
0.684,0.00593125037484981
0.686,-0.04528499414172785
0.6880000000000001,0.0010833170849365165
0.6900000000000001,0.02018513345822518
0.6920000000000001,0.0008968395785658029
0.6940000000000001,0.02713060551154938
0.6960000000000001,0.04181199556936545
0.6980000000000001,0.007641928110285537
0.7000000000000001,-0.02127652698296177
0.7020000000000001,0.008149779575070359
0.704,0.031356905809251955
0.706,0.014292251726334897
0.708,0.00942583605726027
0.71,0.01851224635471592
0.712,0.015398491466871198
0.714,0.029931786913789397
0.716,0.04958569561159237
0.718,0.03313418748521765
0.72,0.028729266447697112
0.722,0.025239870501482575
0.724,-0.0026849619264122226
0.726,0.04134439467423456
0.728,0.024462727216359677
0.73,0.05121463677116768
0.732,0.04157061367274717
0.734,0.03164945103393677
0.736,0.0518065788843521
0.738,0.027555178149305824
0.74,0.02475314875440787
0.742,0.027294758036428488
0.744,-0.002352685089570739
0.746,0.003398684010693729
0.748,0.034091897625202996
0.75,0.047884596597782374
0.752,0.03590967528301381
0.754,0.05251201127616742
0.756,0.029654194196566386
0.758,0.0694417567018349
0.76,0.020268758656680708
0.762,0.0048283065397442555
0.764,0.05104042053101368
0.766,0.006029129225313994
0.768,-0.0032750454765136127
0.77,0.042113699271623964
0.772,0.05507856740996678
0.774,0.012893237827598655
0.776,0.041189738047321824
0.778,0.03841159781122325
0.78,0.02159214753579029
0.782,0.023440859380877428
0.784,0.02157800854868141
0.786,0.03262810003424879
0.788,0.055582331597646216
0.79,0.00824074075891592
0.792,0.04594966264911057
0.794,0.03553924495984403
0.796,0.011045509465283383
0.798,0.011771443420200974
0.8,0.0626169730049582
0.802,0.019164208397860136
0.804,0.03613642447245939
0.806,0.07037600303376638
0.808,0.005890425904233247
0.81,0.07714894859123664
0.812,0.017238943074418398
0.8140000000000001,0.02828529177005776
0.8160000000000001,0.012025564972348263
0.8180000000000001,0.025991794861142718
0.8200000000000001,0.05683457755730778
0.8220000000000001,0.022521090012005827
0.8240000000000001,0.012899573340388323
0.8260000000000001,0.029636678384760105
0.8280000000000001,0.03862432464454098
0.8300000000000001,0.03992670191396363
0.8320000000000001,0.06729341837468289
0.834,0.013953169354141134
0.836,0.04735807990171623
0.838,0.012903444391566044
0.84,0.055300020736767076
0.842,0.007957009393253178
0.844,0.0392553285103838
0.846,0.016000797252009098
0.848,0.061024157436439276
0.85,0.04699615682413893
0.852,-0.016569467728389273
0.854,0.026183894107974483
0.856,0.021898382753358012
0.858,-0.0081330882161455
0.86,0.029909318923660708
0.862,0.032264853159840186
0.864,0.05990198512933717
0.866,0.017072542612904515
0.868,5.185309000575733e-05
0.87,0.024664788633548415
0.872,0.033178310325911634
0.874,-0.02185651660988971
0.876,0.023790668136647774
0.878,0.06276596753578355
0.88,0.02517488638207556
0.882,-0.005505078760059274
0.884,0.03889783197941992
0.886,0.04984525456330319
0.888,0.038947860259989045
0.89,0.01900194805489551
0.892,0.04767129651558316
0.894,0.022094952548573316
0.896,0.05951422650007687
0.898,0.036256383986940935
0.9,0.05374745469856129
0.902,0.07545172083244991
0.904,0.024672052182908244
0.906,0.050803828192725206
0.908,0.03172521488005081
0.91,0.058194080712269385
0.912,0.07342781421192408
0.914,0.07023292552054802
0.916,0.02307579171426674
0.918,0.06785382505496923
0.92,0.06180976817669684
0.922,0.02525334181039364
0.924,0.07659336638524594
0.926,0.016433496973020822
0.928,0.09626319544777887
0.93,0.051807735220407165
0.932,0.09022023396710457
0.934,0.1284594902820094
0.936,0.10883079312120933
0.9380000000000001,0.09731860086688723
0.9400000000000001,0.07544109302768474
0.9420000000000001,0.11557824973346936
0.9440000000000001,0.1343214178319399
0.9460000000000001,0.06550500572981821
0.9480000000000001,0.05082349797877557
0.9500000000000001,0.15071628649169985
0.9520000000000001,0.10338116530172384
0.9540000000000001,0.1463885556821763
0.9560000000000001,0.09344468916840573
0.9580000000000001,0.09385052131355522
0.96,0.09557967053005215
0.962,0.08288240489414048
0.964,0.13563533861216368
0.966,0.09953505693285344
0.968,0.08639355780787834
0.97,0.10679057400257187
0.972,0.11105050707609937
0.974,0.10305866902202708
0.976,0.10978688759000788
0.978,0.10911104442956288
0.98,0.07459691642885924
0.982,0.08626947724210116
0.984,0.08008637621050192
0.986,0.08079436088987986
0.988,0.05521359955649821
0.99,0.03471732651326902
0.992,0.06130707260416972
0.994,0.04644029297375639
0.996,0.056828131280212524
0.998,0.0569454098550196
1.0,0.06956819896273575
1.002,0.06147774414230178
1.004,0.03487495742553209
1.006,0.05243079693830254
1.008,0.01760244540215319
1.01,0.033019070210821205
1.012,0.03266549930221377
1.014,-0.013517347688771508
1.016,-0.01059669202498206
1.018,-0.015141822298348036
1.02,-0.0035348873717696502
1.022,-0.06211763817507838
1.024,-0.02005440664964578
1.026,-0.030969931266196824
1.028,-0.05964550610783557
1.03,-0.07070037414172979
1.032,-0.07089235835180495
1.034,-0.03131574085852747
1.036,-0.08274653133526634
1.038,-0.10892829326245682
1.04,-0.10233544857428331
1.042,-0.12851581547724072
1.044,-0.12069419205347541
1.046,-0.06762856637100605
1.048,-0.06254526036333408
1.05,-0.045078414898004
1.052,-0.03897757245775678
1.054,-0.05464861318075691
1.056,0.01744378275501825
1.058,0.015179049752420999
1.06,0.029988135793375476
1.062,0.0919871691576758
1.064,0.12155701668877912
1.066,0.14291552993424614
1.068,0.1972459621076188
1.07,0.2426523845999665
1.072,0.28160967299222917
1.074,0.36475916010939347
1.076,0.39161294588234513
1.078,0.4308677317290233
1.08,0.4969669501092658
1.082,0.5473094148196997
1.084,0.6350712962378193
1.086,0.6540778374926509
1.088,0.7331760512957645
1.09,0.7775026690854308
1.092,0.7806662181136886
1.094,0.7996601649016971
1.096,0.8853035621000948
1.098,0.9236265208976787
1.1,0.9420142922873932
1.102,0.9387079065326024
1.104,0.9852607748220475
1.106,0.9257443753876861
1.108,0.9453961880409768
1.11,0.9826794406073585
1.112,0.966840487050586
1.114,0.905093518224042
1.116,0.9237947989847638
1.118,0.8887424325308777
1.12,0.8490436254587614
1.122,0.8332261552918262
1.124,0.7776043770884714
1.1260000000000001,0.7273620640795544
1.1280000000000001,0.7225388264458534
1.1300000000000001,0.6496333577060719
1.1320000000000001,0.6269432998437202
1.1340000000000001,0.5732738635469546
1.1360000000000001,0.5294800539049405
1.1380000000000001,0.4604476755011873
1.1400000000000001,0.43932328196165177
1.1420000000000001,0.38751958744390225
1.1440000000000001,0.3322422418145123
1.1460000000000001,0.2538439083444049
1.1480000000000001,0.23828860277608074
1.1500000000000001,0.18315293204076513
1.1520000000000001,0.15171056753328666
1.154,0.09339763685845519
1.156,0.13137931942528705
1.158,0.09140514588166357
1.16,0.05198865078119806
1.162,0.0432820779404173
1.164,-0.010615165145379156
1.166,0.02639588994781527
1.168,-0.01870091894397332
1.17,-0.03038769236032569
1.172,-0.059808192957652793
1.174,-0.029210046836609924
1.176,-0.07069986875458519
1.178,-0.016543853505474534
1.18,-0.01200291291721205
1.182,-0.02354987649909705
1.184,-0.07254409635902684
1.186,-0.06566005152133553
1.188,-0.036586126064403146
1.19,-0.032175135296766855
1.192,-0.052103445741314355
1.194,-0.0215550845487724
1.196,-0.03873495798638616
1.198,-0.025223786869568984
1.2,-0.0392462218621179
1.202,0.0053567131647311314
1.204,0.014466012328907416
1.206,-0.0039014416370158848
1.208,-0.06957635916960217
1.21,-0.019275623278151625
1.212,-0.05386195474693693
1.214,-0.025935476768479383
1.216,-0.07017657615238913
1.218,-0.029173697125766573
1.22,-0.040071233193875046
1.222,-0.004613575394219026
1.224,-0.02365398062152557
1.226,-0.03999139578247258
1.228,-0.03656403830635887
1.23,-0.04625873914391371
1.232,-0.022324714080509348
1.234,-0.01431411617360403
1.236,-0.0564801189755689
1.238,-0.024480661265842286
1.24,-0.014500655240526164
1.242,-0.008631185220197327
1.244,-0.023219439683574067
1.246,-0.058487438221886
1.248,-0.030856938313318188
1.25,-0.02578436205496815
1.252,-0.03362158833041216
1.254,-0.03428430854144513
1.256,-0.07094364933423089
1.258,-0.035783349682097274
1.26,-0.05182688824197884
1.262,-0.021772703408579987
1.264,-0.04582295426228454
1.266,-0.04556659642409258
1.268,-0.03139683108117881
1.27,-0.067036832753762
1.272,-0.047037831771125894
1.274,-0.03559289169320704
1.276,-0.0588363596857749
1.278,-0.03175024843724213
1.28,-0.030941372527534372
1.282,-0.023278396410450476
1.284,-0.03430926392635816
1.286,-0.0425777556992039
1.288,-0.048231209289263235
1.29,-0.021908727262654686
1.292,-0.038834783383315225
1.294,-0.037161870860174404
1.296,-0.02305707719433529
1.298,-0.025269535830099086
1.3,-0.007328797866277393
1.302,-0.05315643459194513
1.304,-0.02991951040401573
1.306,-0.025794712358240806
1.308,-0.04114671946711628
1.31,-0.027846615510011323
1.312,-0.06597544425164183
1.314,-0.08503933491236364
1.316,-0.06489266961547359
1.318,-0.04215354250334561
1.32,-0.05128218676918201
1.322,-0.03415382541564962
1.324,-0.04550199861663509
1.326,-0.05627037129535833
1.328,-0.07233205740800629
1.33,-0.022069074199992142
1.332,-0.07158062746074964
1.334,-0.061538570830439836
1.336,-0.07975505523658871
1.338,-0.07218514483573818
1.34,-0.07034386061943179
1.342,-0.0579407463007853
1.344,-0.048072318665044925
1.346,-0.039268899739265783
1.348,-0.061332722510790985
1.35,-0.06826714653184258
1.352,-0.09633254686482082
1.354,-0.11644774239057248
1.356,-0.07886913420383723
1.358,-0.10211216412095098
1.36,-0.12022517477639746
1.362,-0.10651379699078098
1.364,-0.1261808121905743
1.366,-0.08541221436379784
1.368,-0.09235935639378375
1.37,-0.08007467007639807
1.372,-0.09109252870369108
1.374,-0.10951721925476901
1.3760000000000001,-0.08967396751531982
1.3780000000000001,-0.14368106416367282
1.3800000000000001,-0.09175490261966968
1.3820000000000001,-0.09051925094661609
1.3840000000000001,-0.1028864829906378
1.3860000000000001,-0.1118342015812975
1.3880000000000001,-0.12464526020977751
1.3900000000000001,-0.11967739491629531
1.3920000000000001,-0.1351904310039061
1.3940000000000001,-0.11975786087997209
1.3960000000000001,-0.1420717682844199
1.3980000000000001,-0.14728922348900786
1.4000000000000001,-0.14939466491162604
1.4020000000000001,-0.13641723719176857
1.4040000000000001,-0.15095944276568957
1.4060000000000001,-0.14844220861078533
1.408,-0.162684973002223
1.41,-0.14401903592117205
1.412,-0.14993730404174543
1.414,-0.15981258927018135
1.416,-0.1609779917626208
1.418,-0.16694149985356949
1.42,-0.210151216549955
1.422,-0.16756918096584283
1.424,-0.14779901968367024
1.426,-0.17274297097749514
1.428,-0.19169832397637884
1.43,-0.19531074296332052
1.432,-0.18365571817796528
1.434,-0.18322422998264135
1.436,-0.20510445947683814
1.438,-0.21118201276852672
1.44,-0.15409837940266902
1.442,-0.14452199558288298
1.444,-0.2082075898855592
1.446,-0.203164008617857
1.448,-0.16939784344909334
1.45,-0.18105670390369855
1.452,-0.16322840254346135
1.454,-0.18328473064922
1.456,-0.1919020978135197
1.458,-0.21470036544939355
1.46,-0.20607731206448324
1.462,-0.19423188127044647
1.464,-0.20328695452183573
1.466,-0.20893522779091817
1.468,-0.20347158854369296
1.47,-0.20151395875371697
1.472,-0.18058548592065987
1.474,-0.17209087836291065
1.476,-0.1491299988339545
1.478,-0.22037727375852006
1.48,-0.19440627238988822
1.482,-0.17158477680767767
1.484,-0.1779187785471865
1.486,-0.20465871419761128
1.488,-0.1464199469742612
1.49,-0.18384443079867296
1.492,-0.16472094105006288
1.494,-0.21246248588677713
1.496,-0.1458808782004791
1.498,-0.12553588383780603
1.5,-0.170832407395212
1.502,-0.16106299423337206
1.504,-0.11589804214970233
1.506,-0.17657499652383626
1.508,-0.17927565939139717
1.51,-0.15307997367188925
1.512,-0.14913081920261956
1.514,-0.12545860651814594
1.516,-0.12731771398790795
1.518,-0.1123601788361723
1.52,-0.14769816648399803
1.522,-0.14019552174596306
1.524,-0.08229549017002702
1.526,-0.0904836787011805
1.528,-0.1398998696884905
1.53,-0.11946458677372246
1.532,-0.14641740890132393
1.534,-0.10702423237808273
1.536,-0.07494300865301268
1.538,-0.09770048788977381
1.54,-0.1177281445104501
1.542,-0.07533969875753813
1.544,-0.11235473417035055
1.546,-0.08777034724196897
1.548,-0.09518616715915193
1.55,-0.08215888692660642
1.552,-0.08098437808309739
1.554,-0.10951015402792977
1.556,-0.040828827665694255
1.558,-0.05671399435052793
1.56,-0.09026810125974463
1.562,-0.09039054762338297
1.564,-0.0962884537996309
1.566,-0.08273406785032866
1.568,-0.05396120935172327
1.57,-0.08422242270856871
1.572,-0.03755926570904801
1.574,-0.03546360151298808
1.576,-0.07000913600130958
1.578,-0.05226716178483344
1.58,-0.11596861964709143
1.582,-0.0706282124438447
1.584,-0.0734629513358182
1.586,-0.02296666040387721
1.588,-0.05574315772732266
1.59,-0.055716538250716145
1.592,-0.06888827787905372
1.594,-0.07312011239279606
1.596,-0.10010213012794074
1.598,-0.07760283386373917
1.6,-0.04400753972639677
1.602,-0.051930418665847924
1.604,-0.05971677549804795
1.606,-0.03847946510618423
1.608,-0.02012358250822921
1.61,-0.08534247111499921
1.612,-0.06082292537277322
1.614,-0.045161813092809
1.616,-0.05297960242215321
1.618,-0.08197021561511712
1.62,-0.05049816808870457
1.622,-0.07969069212469317
1.624,-0.04969675199422796
1.6260000000000001,-0.07179982239118023
1.6280000000000001,-0.05725691857027611
1.6300000000000001,-0.07833230333464808
1.6320000000000001,-0.047187117911109897
1.6340000000000001,-0.038146371949703675
1.6360000000000001,-0.03118101592912203
1.6380000000000001,-0.035701294433763124
1.6400000000000001,-0.036445307234197324
1.6420000000000001,-0.05362331405795187
1.6440000000000001,-0.03266106637756873
1.6460000000000001,-0.0326711031462777
1.6480000000000001,-0.0710266733023438
1.6500000000000001,-0.04082697302123799
1.6520000000000001,-0.07258682241431781
1.6540000000000001,-0.05944046915320058
1.6560000000000001,-0.040282021522308344
1.6580000000000001,-0.052803217264253875
1.6600000000000001,-0.01638043018481998
1.6620000000000001,-0.05651182229905187
1.6640000000000001,-0.049987437181188636
1.666,-0.07312377308863381
1.668,-0.03087708315426691
1.67,-0.02661909041732492
1.672,-0.010089224058360987
1.674,-0.0314610921350972
1.676,-0.023843153572979472
1.678,-0.026184997865386906
1.68,-0.052680989760515794
1.682,-0.02544731137033028
1.684,-0.01748269609221479
1.686,-0.05990048445714584
1.688,-0.024394477892877933
1.69,-0.019823496797351334
1.692,-0.058366660945176264
1.694,-0.021526721360311547
1.696,-0.044197073755311574
1.698,-0.04499031111436691
1.7,-0.045859419240985605
1.702,-0.047164296516200285
1.704,-0.012881944139993036
1.706,-0.029663631060886982
1.708,-0.031412561022825726
1.71,-0.035657777063617
1.712,-0.04323139474800904
1.714,-0.05298438167436752
1.716,-0.015083659151654497
1.718,-0.0533967110365382
1.72,-0.004894039667137255
1.722,-0.08421788567979789
1.724,-0.014576875927481376
1.726,-0.04576014950985073
1.728,-0.062269849512617374
1.73,-0.014504566513741764
1.732,-0.05571301888027218
1.734,-0.06859286359162457
1.736,-0.03761852205891375
1.738,-0.05204444657670992
1.74,-0.05426805509741826
1.742,-0.0695180789465232
1.744,-0.018558869092879064
1.746,-0.04195475557553045
1.748,0.008620471655778825
1.75,-0.024647951774338483
1.752,-0.010260965584017723
1.754,0.008116077949269218
1.756,-0.009862074468880065
1.758,-0.018515238172059297
1.76,-0.005439341495755742
1.762,-0.0040252786004093405
1.764,0.024881519565598274
1.766,-0.002974171745426177
1.768,-0.006397223733635507
1.77,0.03405947220175007
1.772,0.019965992621216958
1.774,0.028551466244209976
1.776,0.019450873956577304
1.778,0.011605320595766147
1.78,0.04158875934125726
1.782,0.05506654553983189
1.784,0.04144830379522076
1.786,0.04509417049516321
1.788,0.06965300206562779
1.79,0.0366181082300457
1.792,0.06461173592742009
1.794,0.03874928684681911
1.796,0.06210951476097394
1.798,0.059627819082588254
1.8,0.0791008928358532
1.802,0.07485095610749201
1.804,0.05701648524776717
1.806,0.07976958994543837
1.808,0.08108190801418906
1.81,0.10969745496606054
1.812,0.07736844735222935
1.814,0.11577509921078578
1.816,0.07212663276506234
1.818,0.04850007989102798
1.82,0.09289232590004406
1.822,0.0640407967796524
1.824,0.06963942517807001
1.826,0.0899782983603506
1.828,0.05460560459747167
1.83,0.10795438443084686
1.832,0.07469931864697814
1.834,0.045117895698229056
1.836,0.04170178566050356
1.838,0.05844397378587109
1.84,0.054677501655186714
1.842,0.037034727379288424
1.844,0.0480668499091114
1.846,0.043787753655535215
1.848,0.06192747911234687
1.85,0.033130421192276355
1.852,0.06836305841189019
1.854,-0.00961216150867919
1.856,0.048582477980529455
1.858,0.060711677242211395
1.86,0.009142811574562478
1.862,-0.024669261499328236
1.864,0.01469474734169897
1.866,-0.009921126667788445
1.868,-0.004160253026551611
1.87,-0.017099979030636044
1.872,-0.043322429532977845
1.874,0.017685957495848743
1.8760000000000001,-0.011283646637231698
1.8780000000000001,-0.056270637345241625
1.8800000000000001,-0.05545477255984983
1.8820000000000001,-0.049258457296032815
1.8840000000000001,-0.06908607152840499
1.8860000000000001,-0.06459233348829564
1.8880000000000001,-0.06357173849572491
1.8900000000000001,-0.10579607587615107
1.8920000000000001,-0.09987938613418203
1.8940000000000001,-0.07923563477247678
1.8960000000000001,-0.10005999962577469
1.8980000000000001,-0.0979310351087446
1.9000000000000001,-0.12498820565985069
1.9020000000000001,-0.07790588108678283
1.9040000000000001,-0.08713258963510552
1.9060000000000001,-0.09227908853918287
1.9080000000000001,-0.06198689460866798
1.9100000000000001,-0.05477729896442163
1.9120000000000001,-0.020474909512943826
1.9140000000000001,0.0048270170320898614
1.9160000000000001,-0.020059424774143297
1.9180000000000001,0.06680297851854072
1.92,0.10269274116649835
1.922,0.15648566709799386
1.924,0.15666373084292184
1.926,0.2273352881708951
1.928,0.27041057308616306
1.93,0.29205824492809906
1.932,0.361984177212898
1.934,0.4344567276516063
1.936,0.4583226672473294
1.938,0.5482968612863134
1.94,0.5660911634928746
1.942,0.6238259476388428
1.944,0.653051594441808
1.946,0.7186161754792942
1.948,0.7793403188439358
1.95,0.8275820760359555
1.952,0.8600085285145995
1.954,0.9072819259619225
1.956,0.9235060760450435
1.958,0.935519293017961
1.96,0.9505516040729332
1.962,0.9711258554661794
1.964,0.9950534361960096
1.966,0.9673445746514511
1.968,0.9778986005929352
1.97,0.9924595076638956
1.972,0.953931771183771
1.974,0.9114538935329228
1.976,0.9012164828474728
1.978,0.8575564139872889
1.98,0.8507718984095997
1.982,0.8152361832029911
1.984,0.7650020746367053
1.986,0.6984556861547366
1.988,0.6634288772599568
1.99,0.6409280097942041
1.992,0.5616800867560624
1.994,0.47026760334528245
1.996,0.48516211082114347
1.998,0.41422082226171825
2.0,0.3887986179631232
2.0020000000000002,0.35190160703373985
2.004,0.2676477507278065
2.0060000000000002,0.2481456154251103
2.008,0.26099633404648087
2.0100000000000002,0.2100299328708159
2.012,0.1402848340849154
2.0140000000000002,0.11774007643056734
2.016,0.11225057482875984
2.0180000000000002,0.10070471537047047
2.02,0.04938428658650243
2.0220000000000002,0.05243247960398752
2.024,0.03597139845880125
2.0260000000000002,-0.006080818108542877
2.028,-0.009283947895023209
2.0300000000000002,0.027332587925246073
2.032,-0.028340629182185245
2.0340000000000003,-0.020101281360084627
2.036,0.007155537586218886
2.0380000000000003,-0.004539910851730866
2.04,0.013119513468187866
2.0420000000000003,0.0034139562255576517
2.044,0.006135990483302989
2.0460000000000003,-0.009627121866135561
2.048,-0.009981173346439637
2.05,0.0008337261825159085
2.052,-0.008914121827179659
2.054,-0.06421681926482305
2.056,0.021882854147284345
2.058,-0.025158216970334518
2.06,0.005642401010241212
2.062,-0.024725286012796048
2.064,0.03900602116719652
2.066,0.01771221858609602
2.068,0.0021805567042567082
2.07,0.00485721861502291
2.072,0.026786985428884403
2.074,0.0019258311917263898
2.076,0.04967165297213613
2.078,0.017324331401068167
2.08,-0.004233448971770549
2.082,0.01607163262470495
2.084,-0.00016847248255089678
2.086,0.00919749999415976
2.088,0.0101901053461923
2.09,0.006611084561848627
2.092,-0.00909199060651748
2.094,-0.0005911520341708703
2.096,0.010092502997182425
2.098,0.018316377899573185
2.1,0.03958137774075347
2.102,-0.012303872906580644
2.104,0.05007835260338351
2.106,0.005866156515700294
2.108,0.003256454702320341
2.11,0.019723136084938864
2.112,-0.009233600506664325
2.114,0.025475521121352096
2.116,0.052880483240309084
2.118,0.06589242452517761
2.12,0.005057464688184409
2.122,0.025784643311888178
2.124,0.020661190802188114
2.126,0.013130901887698113
2.128,0.011749728535719053
2.13,0.01809758409480231
2.132,0.013765029587226633
2.134,0.018918173828719437
2.136,0.028237597499300278
2.138,0.03662758348267064
2.14,0.023839310388545983
2.142,0.03277078191550131
2.144,0.028619028394143257
2.146,0.01914238267999358
2.148,0.021057845427752166
2.15,0.00014844320608221103
2.152,-0.00899837085022057
2.154,0.006923874492270426
2.156,0.014916912552306056
2.158,0.018566295415383897
2.16,0.05475862140014488
2.162,-0.006264430640505279
2.164,0.02768064723172834
2.166,0.04067017657924441
2.168,-0.003936235822494099
2.17,0.037160793811750706
2.172,0.017201830157661795
2.174,0.03848097384538672
2.176,0.007890076048387339
2.178,0.012051354232381111
2.18,0.015333830951107826
2.182,0.009728251378222664
2.184,-0.012331062676054305
2.186,0.06890570043409475
2.188,0.04581397189790933
2.19,0.016257145206492324
2.192,0.012099294200092175
2.194,0.013090397569506553
2.196,-0.01732027012294155
2.198,-0.0063821359196028216
2.2,0.02909241010869785
2.202,0.006044246033044851
2.204,-0.0010972286798811848
2.206,-0.009143150468251081
2.208,0.005817524763458058
2.21,-0.028478340552875344
2.212,0.03155479475053508
2.214,0.017452458390572193
2.216,0.007326953527393779
2.218,-0.032027311961413174
2.22,0.003785653923711524
2.222,-0.007233795166610012
2.224,0.021562655733248164
2.226,-0.012748021841606623
2.228,-0.025998882220347706
2.23,-0.004136694888595756
2.232,0.01940935542211184
2.234,-0.015529611822956493
2.236,-0.038922594711087985
2.238,-0.023549294710962267
2.24,-0.03269016123064615
2.242,-0.02997866940496524
2.244,-0.06338842499256243
2.246,-0.035571619353292616
2.248,-0.016871033231344527
2.25,-0.029880534248634252
2.2520000000000002,-0.0425805092651437
2.254,-0.058791352173189176
2.2560000000000002,-0.029223935140686122
2.258,-0.031256074785429896
2.2600000000000002,-0.052363418037222956
2.262,-0.06978692727343923
2.2640000000000002,-0.04432999430467448
2.266,-0.07076929253281379
2.2680000000000002,-0.05188267266581359
2.27,-0.086061971772216
2.2720000000000002,-0.07441202800290314
2.274,-0.09593651951155738
2.2760000000000002,-0.10887398001825752
2.278,-0.10154371270701353
2.2800000000000002,-0.0651198665063299
2.282,-0.08375866687338111
2.2840000000000003,-0.1184495682990911
2.286,-0.09265685362108844
2.2880000000000003,-0.09456788878779279
2.29,-0.08271775060692711
2.2920000000000003,-0.08591539876091464
2.294,-0.11152651929142544
2.2960000000000003,-0.09401017251929647
2.298,-0.09048902765330348
2.3000000000000003,-0.12172061172533795
2.302,-0.14409896382041956
2.3040000000000003,-0.14865354514726742
2.306,-0.10658835581492834
2.308,-0.09718595919809792
2.31,-0.07017813154638672
2.312,-0.10712577642245247
2.314,-0.09028616021706472
2.316,-0.10480797241293677
2.318,-0.08870767041856795
2.32,-0.11629337265427676
2.322,-0.1221759988419355
2.324,-0.09398267250144142
2.326,-0.09161006383631291
2.328,-0.10015747376667286
2.33,-0.07505938837671972
2.332,-0.08351179397276073
2.334,-0.09335356711856271
2.336,-0.139256023094079
2.338,-0.12293212459900978
2.34,-0.09552652803127934
2.342,-0.07606738433969489
2.344,-0.09381419941088001
2.346,-0.06263090247937013
2.348,-0.07529305089301414
2.35,-0.04704990904391673
2.352,-0.09281697472969788
2.354,-0.08778214087644681
2.356,-0.04214982341940096
2.358,-0.05544473192599115
2.36,-0.06884751207563643
2.362,-0.03010863784191796
2.364,-0.059027481224313366
2.366,-0.043142025524014346
2.368,-0.08007315370241969
2.37,-0.0741706486073905
2.372,-0.03967418902248898
2.374,-0.030878047846020273
2.376,-0.028442514739493566
2.378,-0.04536015429389367
2.38,-0.05442843347006765
2.382,-0.035020280265590745
2.384,-0.05035474977749316
2.386,-0.022846823194420593
2.388,-0.02279362323715052
2.39,-0.003407543206607147
2.392,0.022311734593192155
2.394,-0.008862093218219298
2.396,-0.049207028379818114
2.398,-0.01866377915880868
2.4,0.004044051839006885
2.402,0.01558969993928419
2.404,0.006316222973105461
2.406,0.022370733655759235
2.408,0.01745146474610538
2.41,0.03855959439490075
2.412,0.02479076729397755
2.414,0.01618343575262271
2.416,0.03399075894276411
2.418,0.020210842561930783
2.42,0.010701007322145403
2.422,-0.004634785287955651
2.424,0.05558009613295159
2.426,0.025211413904902672
2.428,-0.002217341368761762
2.43,-0.02166906674014329
2.432,0.018315588719853785
2.434,0.008840214416485321
2.436,0.02294735209541752
2.438,0.020521425582933413
2.44,0.046816152401208566
2.442,0.04314011621531737
2.444,0.05582570765521574
2.446,0.007621450436065167
2.448,0.05604491406935735
2.45,0.08500845056331131
2.452,0.053516429034421074
2.454,0.06958739624313301
2.456,0.06022181301261565
2.458,0.027977956978722702
2.46,0.0017728169704958538
2.462,0.07324495984199453
2.464,0.04266980341642274
2.466,0.05929046047599917
2.468,0.041123095058806264
2.47,0.017592275688201334
2.472,0.0250789060163516
2.474,0.02590042326698165
2.476,0.03665197787114454
2.478,0.04827663463372792
2.48,0.02380143642859759
2.482,0.04180981066046198
2.484,0.030725138433683026
2.486,0.04991550261586743
2.488,0.010687373486660826
2.49,0.07878487835212523
2.492,0.02370652241879097
2.494,0.060747643989123336
2.496,0.03403983547146091
2.498,0.043573450652778845
2.5,0.05987959327792229
2.5020000000000002,0.03964910873500387
2.504,0.003125071376253722
2.5060000000000002,0.055062864865878164
2.508,0.04772749297223703
2.5100000000000002,0.033660542012937035
2.512,0.009540433070700278
2.5140000000000002,0.05376198694609655
2.516,0.031010483668066205
2.5180000000000002,0.03440163833285262
2.52,0.044955644396513464
2.5220000000000002,0.034452767262011026
2.524,0.07780442325186294
2.5260000000000002,0.025361523715520824
2.528,0.04869620826609909
2.5300000000000002,0.028904939197795656
2.532,0.02586686732856326
2.5340000000000003,0.037811756054053174
2.536,0.039218003824589294
2.5380000000000003,0.059748706519706686
2.54,0.06985452070638659
2.5420000000000003,0.03881309992030897
2.544,0.03060111721950518
2.5460000000000003,0.07182484537918737
2.548,0.08546283742995983
2.5500000000000003,0.07543565970811324
2.552,0.061016095314824666
2.5540000000000003,0.054018626941669874
2.556,0.07984985065575072
2.5580000000000003,0.05404306830699449
2.56,0.04956754090828587
2.562,0.0468058859652719
2.564,0.03495524069655171
2.566,0.03795245594848507
2.568,0.07129787493672221
2.57,0.08114697843746459
2.572,0.022190565601100408
2.574,0.04278182548121901
2.576,0.06510208099388556
2.578,0.04286912929133585
2.58,0.0568750110229263
2.582,0.041109107843235695
2.584,0.03713087506429638
2.586,0.055157852504888104
2.588,0.03705827162948891
2.59,0.07709401561560857
2.592,0.07102520451664032
2.594,0.049044680790322544
2.596,0.0763823536077144
2.598,0.06161444645271594
2.6,0.085223739600287
2.602,0.09419344511607922
2.604,0.029721249765811853
2.606,0.09836330321922179
2.608,0.11357488353535426
2.61,0.038172553196624825
2.612,0.06833065293372942
2.614,0.07282418921695274
2.616,0.07140805383612672
2.618,0.07149939019170187
2.62,0.08560825916865344
2.622,0.0813679291057307
2.624,0.05707285478631244
2.626,0.12117944729274513
2.628,0.08472763931677868
2.63,0.0730541421945717
2.632,0.09201340416579684
2.634,0.1157718717246503
2.636,0.10904119163013004
2.638,0.09942428424270278
2.64,0.1212295823712338
2.642,0.106026957707677
2.644,0.15037711021547528
2.646,0.09978813949345336
2.648,0.11577424920181072
2.65,0.14808092904867687
2.652,0.1537802436380104
2.654,0.10937209306895725
2.656,0.14671342458172013
2.658,0.13582483712242863
2.66,0.11742850515494054
2.662,0.14193663480998137
2.664,0.11671164623375785
2.666,0.16886522929160572
2.668,0.16483887860674035
2.67,0.12772346933440668
2.672,0.12850936036988353
2.674,0.1314126677003559
2.676,0.1008203153717987
2.678,0.13926997636497632
2.68,0.14352074551190253
2.682,0.16488807047097798
2.684,0.168663536542504
2.686,0.12778934194136096
2.688,0.1298731804107843
2.69,0.12885161084764146
2.692,0.12131567078880484
2.694,0.11300514472991513
2.696,0.12485442225923307
2.698,0.15084002860591011
2.7,0.12259648803763078
2.702,0.10904407473093801
2.704,0.08727997919604633
2.706,0.1152745815853697
2.708,0.07977183073322396
2.71,0.10230011725226523
2.712,0.07918260694780233
2.714,0.06671202940537155
2.716,0.0721197395775856
2.718,0.08301378928376675
2.72,0.06593549055684324
2.722,0.056420433903837774
2.724,0.07802198084140696
2.726,0.051898593051001835
2.728,0.03140084805353956
2.73,0.06972195796257044
2.732,0.03027615206844971
2.734,-0.017962909840762778
2.736,-0.004097458252636216
2.738,0.008235849778586407
2.74,0.03730487715837182
2.742,0.038787858856261216
2.744,0.02379436624651924
2.746,-0.005677074272241088
2.748,-0.048249136175257626
2.75,-0.06459667397671066
2.7520000000000002,-0.06300439618434908
2.754,-0.03232716347378289
2.7560000000000002,-0.03201138806362443
2.758,-0.022615574001477623
2.7600000000000002,-0.10977799260019254
2.762,-0.009157183995889676
2.7640000000000002,-0.06584388278335108
2.766,-0.0220905616495101
2.7680000000000002,-0.024609842503620635
2.77,-0.008431471288025471
2.7720000000000002,0.04852144497434986
2.774,0.10645169449834832
2.7760000000000002,0.13964807010671973
2.778,0.15480273759224678
2.7800000000000002,0.16688815825491302
2.782,0.26366451650122336
2.7840000000000003,0.2701941309365458
2.786,0.32768205609195983
2.7880000000000003,0.4064300900173905
2.79,0.4422302581115636
2.7920000000000003,0.4830302091626863
2.794,0.5400033369496258
2.7960000000000003,0.5802240798718291
2.798,0.666057960337699
2.8000000000000003,0.7008761899889695
2.802,0.7304494047274908
2.8040000000000003,0.826387501526561
2.806,0.8023814824280499
2.8080000000000003,0.8600058898387909
2.81,0.8777350762079339
2.8120000000000003,0.9272075021446301
2.814,0.9777093779641598
2.816,0.9963335386865181
2.818,1.0010861740732255
2.82,1.0052191264968933
2.822,1.0334865728867848
2.824,1.0317815080050878
2.826,0.9530930321650009
2.828,0.968557067967954
2.83,0.936651168058026
2.832,0.9687373863942702
2.834,0.9044640136559634
2.836,0.8732717623314671
2.838,0.8328451515313448
2.84,0.7958727758846279
2.842,0.7678492766925726
2.844,0.7095688404296077
2.846,0.6474341070648096
2.848,0.6230872848373973
2.85,0.5766159586616117
2.852,0.4829258660454744
2.854,0.4827124911521784
2.856,0.4568501450686291
2.858,0.4249457216075566
2.86,0.29028337516879565
2.862,0.3075162261336656
2.864,0.26199879522527514
2.866,0.19631974037937733
2.868,0.1853742084211072
2.87,0.12511665761887256
2.872,0.12856134843966555
2.874,0.09346856011115152
2.876,0.05273585392502298
2.878,0.0726714168372981
2.88,0.05114454339420338
2.882,0.04399056821304557
2.884,0.0034448299607282382
2.886,-0.018219133204245418
2.888,-0.0014109500432338187
2.89,-0.009278911135280022
2.892,0.006636436247414192
2.894,-0.008818721222617317
2.896,-0.015667078897120282
2.898,-0.02497433028244831
2.9,-0.002570695362852888
2.902,0.005755012221741632
2.904,-0.0007992443717651093
2.906,-0.006266354482763045
2.908,0.014992414958945629
2.91,0.013636477871761856
2.912,0.01780775877349964
2.914,-0.00861550835974413
2.916,-0.019104392184100656
2.918,0.018790702638834537
2.92,0.009669836009055452
2.922,0.032740342835474195
2.924,0.02606100117663223
2.926,0.029929382335525143
2.928,0.03984310299293467
2.93,0.029862706414850337
2.932,0.0036177877799281485
2.934,0.009523112147937567
2.936,0.010185038676305404
2.938,-0.006954255012691103
2.94,-0.007927232252163753
2.942,0.03752648986393552
2.944,0.03232830685386872
2.946,0.018877744976941065
2.948,0.04423326256975301
2.95,0.010737307765735176
2.952,0.0014182183092125412
2.954,0.003218667213682652
2.956,0.016285838902373354
2.958,-0.005424372911677477
2.96,-0.005337177381358908
2.962,0.018979428288435095
2.964,0.008461594630848222
2.966,0.02597598732309323
2.968,0.032700682773487824
2.97,-0.0015804532875004081
2.972,-0.024815072396063554
2.974,0.010788399824223065
2.976,-0.02914396311001797
2.978,0.014622581062654377
2.98,-0.019112359645454206
2.982,0.005051000041431467
2.984,-0.00816991355503298
2.986,-0.0007595433561336338
2.988,0.030908016555842775
2.99,-0.04035796600210133
2.992,0.04420443723012368
2.994,0.011351007911774208
2.996,0.008497012284520848
2.998,0.04141777098049991
3.0,0.003821813895856157
3.0020000000000002,-0.021629709097185063
3.004,0.004963164044845264
3.0060000000000002,-0.03180627742397875
3.008,0.02140334250110264
3.0100000000000002,-0.040522620698885424
3.012,-0.0040012551181651795
3.0140000000000002,-0.024894647033418454
3.016,-0.011036908217520836
3.0180000000000002,-0.007237154477148171
3.02,0.0018120266171154122
3.0220000000000002,-0.0041798187981085585
3.024,0.026078697567332818
3.0260000000000002,-0.03366047806237081
3.028,-0.04378216488214737
3.0300000000000002,0.02997093061234353
3.032,-0.037239429010205084
3.0340000000000003,-0.016590937784906713
3.036,-0.014544396439478241
3.0380000000000003,-0.021055467223977515
3.04,-0.005956233605088537
3.0420000000000003,-0.004698500839055078
3.044,-0.04286878337270664
3.0460000000000003,-0.010112900424309412
3.048,0.0031069894342578893
3.0500000000000003,-0.03008864350636448
3.052,-0.050560992435685834
3.0540000000000003,-0.037872872541680855
3.056,-0.05512962277038974
3.0580000000000003,-0.032729207212290994
3.06,-0.041061717928328176
3.0620000000000003,-0.04597427048119623
3.064,-0.048229184501288894
3.0660000000000003,-0.04564309494604619
3.068,-0.02683507351315164
3.0700000000000003,-0.014519340627908647
3.072,-0.062347714087042094
3.074,-0.05471034918260256
3.076,-0.030304552081063717
3.078,-0.0624633075402393
3.08,-0.05607187934672589
3.082,-0.041301118011236426
3.084,-0.05246201821161235
3.086,-0.08627880957525433
3.088,-0.031819049560936
3.09,-0.03850307980022947
3.092,-0.08786014028625638
3.094,-0.09991928399406232
3.096,-0.0743455659249214
3.098,-0.09625926478633257
3.1,-0.10402533387119955
3.102,-0.11929558018194666
3.104,-0.11587968633149874
3.106,-0.09401985591465048
3.108,-0.10217406831172057
3.11,-0.07657802824787842
3.112,-0.08244162925802795
3.114,-0.09556345106204599
3.116,-0.11729173928092605
3.118,-0.11071591141205178
3.12,-0.11551123281875877
3.122,-0.11123294471883141
3.124,-0.16241542980384877
3.126,-0.13660052970629455
3.128,-0.11021267611061153
3.13,-0.14880853294456237
3.132,-0.11290689894312918
3.134,-0.1425402462258462
3.136,-0.18917882837355754
3.138,-0.13004534474487606
3.14,-0.168743263621046
3.142,-0.18533751595162756
3.144,-0.14380067089905324
3.146,-0.171847314183254
3.148,-0.17250642274741051
3.15,-0.13347483634569945
3.152,-0.16717861759690883
3.154,-0.18971054367072138
3.156,-0.13085318786320757
3.158,-0.1760946563189183
3.16,-0.18001986058467895
3.162,-0.18253066704338616
3.164,-0.18702422836862706
3.166,-0.1898588938719016
3.168,-0.1937712411531436
3.17,-0.20968725869374022
3.172,-0.17205503246407808
3.174,-0.18017281276710814
3.176,-0.18369618045274344
3.178,-0.15590061210367598
3.18,-0.16265786612196992
3.182,-0.18100808700503399
3.184,-0.1626856225673738
3.186,-0.1634785567908416
3.188,-0.15917846443949465
3.19,-0.16698870897599113
3.192,-0.1980977301313882
3.194,-0.18881709603313257
3.196,-0.2325033360149596
3.198,-0.1500287845037152
3.2,-0.15164343499274632
3.202,-0.1759004847042463
3.204,-0.16972781241225418
3.206,-0.17400723037448323
3.208,-0.14282711476941218
3.21,-0.13857648102523518
3.212,-0.1322523569236626
3.214,-0.16723337670892136
3.216,-0.12160551763933655
3.218,-0.1302129929559641
3.22,-0.13354899702774664
3.222,-0.10883046418286514
3.224,-0.1181261011179699
3.226,-0.13817913908425916
3.228,-0.0984488331789981
3.23,-0.1096239303051956
3.232,-0.11198650020553641
3.234,-0.09727997273359984
3.236,-0.15471961002237322
3.238,-0.12319327530594114
3.24,-0.09221898771064202
3.242,-0.1092982549881723
3.244,-0.09989290047392535
3.246,-0.0928354205680457
3.248,-0.12198278276944834
3.25,-0.10908884656965182
3.2520000000000002,-0.07634697631393743
3.254,-0.08406267599312862
3.2560000000000002,-0.06155176591541897
3.258,-0.09281433813597553
3.2600000000000002,-0.06141033836190325
3.262,-0.08210021259688513
3.2640000000000002,-0.04792756264901659
3.266,-0.09983396041177403
3.2680000000000002,-0.08425022022866599
3.27,-0.08442314942425955
3.2720000000000002,-0.04442540807996915
3.274,-0.06335157190547566
3.2760000000000002,-0.05203592954302194
3.278,-0.05570829646973527
3.2800000000000002,-0.05707597194812502
3.282,-0.09956009959196577
3.2840000000000003,-0.0645037792661482
3.286,-0.056363971674145724
3.2880000000000003,-0.07859082799548503
3.29,-0.10128904246599758
3.2920000000000003,-0.037344459129020804
3.294,-0.06341529739373952
3.2960000000000003,-0.06420968261932912
3.298,-0.0687054150373785
3.3000000000000003,-0.05687555315365701
3.302,-0.07333515949079632
3.3040000000000003,0.003052918532384062
3.306,-0.0659817403834592
3.3080000000000003,-0.043386604013875944
3.31,-0.011730100226356014
3.3120000000000003,-0.0688362836800791
3.314,-0.05689649372854158
3.3160000000000003,-0.041483759240634466
3.318,-0.057277599615243285
3.3200000000000003,-0.03478591828753589
3.322,-0.06559710001742189
3.3240000000000003,-0.07169929042952215
3.326,-0.026405952871872654
3.3280000000000003,-0.0546528159605245
3.33,-0.05317454584857355
3.332,-0.03384005697507547
3.334,-0.03119255967617647
3.336,0.005454044531362393
3.338,-0.06621842630510395
3.34,-0.08005664719817294
3.342,-0.07015966698452025
3.344,-0.05407936253019389
3.346,-0.02938657775945454
3.348,-0.07985130600927685
3.35,-0.04744371364219974
3.352,-0.05520227972346159
3.354,-0.02300790796632102
3.356,-0.03963098186472501
3.358,-0.04504233046972693
3.36,-0.07754761166116383
3.362,-0.04190302528663351
3.364,-0.03716188480505037
3.366,-0.05204917287626763
3.368,-0.06752071153502569
3.37,-0.04852598923903845
3.372,-0.04073285673030341
3.374,-0.03412013117257004
3.376,-0.05661635046974463
3.378,-0.039158987906313246
3.38,-0.030855601181245085
3.382,-0.04203501605671141
3.384,-0.04650113195976613
3.386,-0.03917225623010995
3.388,-0.021672512629411545
3.39,-0.01160974011898206
3.392,-0.06142501998645544
3.394,-0.029255336004652778
3.396,-0.051842613163477644
3.398,-0.050000117964681956
3.4,-0.053971616438404396
3.402,-0.024687166277604825
3.404,-0.04784786237624645
3.406,-0.08631432313122848
3.408,-0.00552505881556802
3.41,-0.09368209745007583
3.412,-0.04730148043509404
3.414,-0.03575554126405859
3.416,-0.03387385420157161
3.418,-0.043053704250093146
3.42,-0.0705721379450847
3.422,-0.08426732523425057
3.424,-0.06076078209323312
3.426,-0.08958453057737008
3.428,-0.05205074535759528
3.43,-0.03495858005033628
3.432,-0.03861678237387094
3.434,-0.059650736855585154
3.436,-0.03790608872607785
3.438,-0.047851330774709766
3.44,-0.04666933975729297
3.442,-0.04547709438594101
3.444,-0.07278621721823184
3.446,-0.0540696343577912
3.448,-0.04807992455279038
3.45,-0.036064356799155116
3.452,-0.07753654968998677
3.454,-0.052075799090850416
3.456,-0.019702561018564116
3.458,-0.0020624195870992713
3.46,-0.048525798131815595
3.462,-0.009885500757263833
3.464,-0.036019481350807875
3.466,-0.006548912698333676
3.468,-0.058138801613914264
3.47,-0.021392279180055755
3.472,-0.033843811659864734
3.474,-0.04661803886382566
3.476,-0.020820251519732123
3.478,-0.04133360722516641
3.48,-0.03769953553493038
3.482,-0.07246143519808079
3.484,0.012572685022116156
3.486,0.012563158763070466
3.488,-0.008880601772751892
3.49,-0.03636573072720707
3.492,0.015697195751287578
3.494,0.030769624376976237
3.496,0.023962114590326114
3.498,0.03224660039741538
3.5,-0.016480704523800543
3.5020000000000002,0.04462365706173346
3.504,0.052723543418722194
3.5060000000000002,0.03355797078244587
3.508,0.03603916320838344
3.5100000000000002,0.029987345670841666
3.512,-0.0036167926601274325
3.5140000000000002,0.058474816048388244
3.516,0.04297826705311867
3.5180000000000002,0.05171591094335431
3.52,0.06392237357041544
3.5220000000000002,0.017493891561216904
3.524,0.05772978626787908
3.5260000000000002,0.050210495750795565
3.528,0.08536362351098953
3.5300000000000002,0.048372998293597404
3.532,0.0392204901311968
3.5340000000000003,0.035431007649275606
3.536,0.024034819080943765
3.5380000000000003,0.01080949202139865
3.54,0.035540048983601975
3.5420000000000003,0.04616733696470118
3.544,0.05167775440571863
3.5460000000000003,0.005893966322032762
3.548,0.056597351781455835
3.5500000000000003,0.02123309410498648
3.552,-0.0020580956154696434
3.5540000000000003,0.014989977808622698
3.556,0.03390076822840223
3.5580000000000003,0.0652062019509746
3.56,-0.03597435464992482
3.5620000000000003,-0.0045420860440909955
3.564,-0.00676309690720122
3.5660000000000003,-0.004785509458477721
3.568,-0.0370166273578055
3.5700000000000003,0.012565903149353554
3.572,-0.0040092384273880885
3.5740000000000003,-0.005901656217419726
3.576,0.018848985447000435
3.5780000000000003,-0.03668254325820544
3.58,-0.0020412231166148966
3.5820000000000003,-0.02834481920295502
3.584,-0.0331476476840403
3.586,-0.07156461563031569
3.588,-0.0941601527480085
3.59,-0.0489195587472762
3.592,-0.04086653757583219
3.594,-0.03613783996282756
3.596,-0.06372100005129205
3.598,-0.07225650536365896
3.6,-0.10795727777993011
3.602,-0.14211528114837585
3.604,-0.09603025752189084
3.606,-0.10908517386293598
3.608,-0.15156595191350208
3.61,-0.10855541901777502
3.612,-0.16971978666563226
3.614,-0.14162421229520314
3.616,-0.1188738158529089
3.618,-0.11499325369149298
3.62,-0.10886900054156982
3.622,-0.0991119940032914
3.624,-0.025877973680200887
3.626,-0.09028111994707332
3.628,-0.07925804425267818
3.63,-0.013927172340270265
3.632,0.016814464366700956
3.634,0.025988954110683235
3.636,0.10791337518805355
3.638,0.14322112946950055
3.64,0.17143383982906474
3.642,0.22479596897967272
3.644,0.28790289465283425
3.646,0.3815431440118435
3.648,0.4002762219810016
3.65,0.44404733950410014
3.652,0.4807245488087176
3.654,0.5929797223565821
3.656,0.5809410433778032
3.658,0.6760745099441496
3.66,0.6760266875272071
3.662,0.7629097506075804
3.664,0.7778016946462961
3.666,0.843230081150838
3.668,0.8676906572181509
3.67,0.9020599534436554
3.672,0.9348758985040142
3.674,0.8881203689393626
3.676,0.9716966535351623
3.678,0.9501854774731219
3.68,0.8958576954213224
3.682,0.9207699852966996
3.684,0.9183031702271649
3.686,0.918692979287492
3.688,0.8620179031324372
3.69,0.8133151041124597
3.692,0.8237174905131777
3.694,0.791230471756766
3.696,0.769254597907838
3.698,0.7130987454655312
3.7,0.690935810263492
3.702,0.6145177372774558
3.704,0.580935285543417
3.706,0.5207041825267222
3.708,0.4951685069293884
3.71,0.44076401133865983
3.712,0.3772506273054641
3.714,0.34135371747344123
3.716,0.28025672399801527
3.718,0.27683931872257067
3.72,0.21122987917056235
3.722,0.13637484860206323
3.724,0.12565495671289684
3.726,0.1133411987050548
3.728,0.07118868507260619
3.73,0.07173700038917474
3.732,0.030903637176568508
3.734,-0.02355893305273625
3.736,0.0041844978055566966
3.738,-0.022992452929131907
3.74,0.010717572180388279
3.742,-0.049093595994968965
3.744,-0.041390977912355416
3.746,-0.02191521589054436
3.748,-0.03489065142264838
3.75,-0.05938022166729437
3.7520000000000002,-0.049762444993784724
3.754,-0.06779073293526261
3.7560000000000002,-0.06985350412555039
3.758,-0.025344487994456776
3.7600000000000002,-0.03198918813497545
3.762,-0.04024010499472542
3.7640000000000002,-0.05211733624233486
3.766,-0.062493297837186546
3.7680000000000002,-0.05078008441435234
3.77,-0.05740931582838442
3.7720000000000002,0.021611805995349544
3.774,-0.009479120044991506
3.7760000000000002,-0.05862374622058445
3.778,-0.014095152414886018
3.7800000000000002,-0.0924256317144793
3.782,-0.012577072262096851
3.7840000000000003,-0.04817217257138301
3.786,-0.04323004309515391
3.7880000000000003,-0.03653470992439096
3.79,-0.027431698393237777
3.7920000000000003,-0.058280543984446896
3.794,0.0014474345496964785
3.7960000000000003,-0.0042761208542958585
3.798,-0.029130082412932187
3.8000000000000003,-0.024810272319617035
3.802,-0.039147218360602414
3.8040000000000003,-0.02811699437782109
3.806,-0.04894284968486822
3.8080000000000003,-0.01843384055416975
3.81,-0.030575871215296986
3.8120000000000003,-0.029566483577519058
3.814,-0.04586849948513467
3.8160000000000003,-0.03218786360998493
3.818,-0.03685342329223331
3.8200000000000003,-0.05776216712625877
3.822,-0.0510107617248441
3.8240000000000003,-0.047218213389539875
3.826,-0.01853499214939263
3.8280000000000003,-0.011469476920143483
3.83,-0.038272748460315996
3.8320000000000003,-0.031332939355929165
3.834,-0.03442780807511858
3.8360000000000003,-0.013851153342218502
3.838,0.004479582350823576
3.84,-0.030162480147565427
3.842,-0.04545499381797898
3.844,-0.02249122068097998
3.846,-0.04152268260184667
3.848,-0.03018318573377205
3.85,-0.046073304151777
3.852,-0.031104525485843977
3.854,-0.01164780364634923
3.856,-0.025637732390204136
3.858,-0.040194298635656066
3.86,-0.0331697224767771
3.862,-0.00583172601122558
3.864,-0.04079825080571976
3.866,-0.019507441183431357
3.868,-0.014704505993245446
3.87,-0.04797516904472056
3.872,-0.029242993291056067
3.874,-0.028479626169232976
3.876,-0.0031639177566750182
3.878,-0.03905124842169217
3.88,0.003065432226909473
3.882,-0.0001511335910735689
3.884,-0.06633830197660033
3.886,-0.00963611927865723
3.888,-0.03485166939028793
3.89,-0.057241646425382764
3.892,-0.02217882728165118
3.894,-0.05627486012661313
3.896,-0.030705634005868104
3.898,-0.04186134671344353
3.9,-0.009839699581871043
3.902,-0.016982002712451705
3.904,-0.030594255222932895
3.906,-0.0038187988247273853
3.908,-0.013082838219820073
3.91,-0.025851368106610255
3.912,0.0036476828556127917
3.914,-0.0504046856487802
3.916,-0.025937586664924628
3.918,-0.0445230658715725
3.92,-0.016317376786160787
3.922,0.004935613193405929
3.924,-0.02159690330658103
3.926,-0.0892971371010895
3.928,-0.058619347141071115
3.93,-0.04471308438067559
3.932,-0.05461502308208045
3.934,-0.09306849261958447
3.936,-0.0265327165598622
3.938,-0.07031869307635649
3.94,-0.031158834990822296
3.942,-0.02904233414551738
3.944,-0.08303887645640642
3.946,-0.04804154692115137
3.948,-0.055898017391402495
3.95,-0.04318334240082408
3.952,-0.07175705084216152
3.954,-0.07938223135503425
3.956,-0.08057609890317373
3.958,-0.1245144283317321
3.96,-0.09727132023256063
3.962,-0.0881784659844577
3.964,-0.08722654697005316
3.966,-0.10127336407780055
3.968,-0.12174304228787758
3.97,-0.08170807514259937
3.972,-0.08588486980467033
3.974,-0.10302722803246261
3.976,-0.10876791508272558
3.978,-0.12097847063773759
3.98,-0.13566320144705435
3.982,-0.08209790225269502
3.984,-0.10381919187584535
3.986,-0.10216503559522522
3.988,-0.1264672932322973
3.99,-0.1366454850267814
3.992,-0.11696662839140481
3.994,-0.11529033487689175
3.996,-0.13535428967609026
3.998,-0.13935872460573873
4.0,-0.10659370839969079
4.002,-0.15867906748601937
4.0040000000000004,-0.14082742426093878
4.006,-0.1204800780359754
4.008,-0.14556507884090994
4.01,-0.15526627552672664
4.0120000000000005,-0.17463886811764
4.014,-0.0965067032426982
4.016,-0.12516258574421427
4.018,-0.16808661246624945
4.0200000000000005,-0.134420276734723
4.022,-0.1641871465182847
4.024,-0.1670308138636413
4.026,-0.14128832693092785
4.0280000000000005,-0.14973099965755085
4.03,-0.14829779327929504
4.032,-0.14439197534131515
4.034,-0.13580831083526895
4.0360000000000005,-0.15076781872266815
4.038,-0.1367841242148691
4.04,-0.1583995828375156
4.042,-0.11021915501532602
4.0440000000000005,-0.12103422646439231
4.046,-0.11699046213511291
4.048,-0.11358932447841799
4.05,-0.10248331254575899
4.0520000000000005,-0.14098642172456957
4.054,-0.1312061839955646
4.056,-0.14083205308877472
4.058,-0.14187198820581093
4.0600000000000005,-0.12345556977922337
4.062,-0.13584142037881616
4.064,-0.12707325862679922
4.066,-0.09672451556858297
4.0680000000000005,-0.09081507571932962
4.07,-0.13708320936597823
4.072,-0.0896861796727338
4.074,-0.12738303604645373
4.0760000000000005,-0.09966268007421668
4.078,-0.08595645760374288
4.08,-0.10179577314681848
4.082,-0.04407442396999173
4.0840000000000005,-0.0720148411494693
4.086,-0.07417607443277204
4.088,-0.05070099185334262
4.09,-0.0645003287952106
4.0920000000000005,-0.041175052108930306
4.094,-0.08690565567642092
4.096,-0.07989196377410317
4.098,-0.04074723036297801
4.1,-0.07918812951630824
4.102,-0.02530054101309248
4.104,-0.04334829173786001
4.106,-0.0487619129933374
4.108,-0.06684893616404772
4.11,-0.010746685645189782
4.112,-0.05156464929014008
4.114,-0.007160946885169425
4.116,-0.040427231013982066
4.118,-0.023962858550115596
4.12,-0.025783633640741044
4.122,-0.024662696185202157
4.124,-0.0071231076669303894
4.126,-0.03907150110209784
4.128,-0.06284110702345291
4.13,0.030294608438638043
4.132,-0.016442757224542144
4.134,0.0013015548101032552
4.136,-0.016725676498418517
4.138,0.0033699132912587
4.14,-0.0022481561344760044
4.142,0.02430456360188955
4.144,-0.040827106642897265
4.146,0.003083193772681233
4.148,0.021565616469635097
4.15,0.004247042430787811
4.152,0.01189144616870169
4.154,0.023199322663355754
4.156,0.03928885130047527
4.158,0.017744388396050685
4.16,0.014607161180075764
4.162,-0.002687240364586606
4.164,0.022847556509938947
4.166,-0.022123866989910382
4.168,0.028583573082042308
4.17,0.026773657334549755
4.172,-0.0027912835547805126
4.174,0.02354415750400178
4.176,0.015516519857310621
4.178,-0.004720887979649624
4.18,0.040090104976951174
4.182,0.020630931567348982
4.184,0.08820770717601131
4.186,0.04034017067640685
4.188,0.05256359522261685
4.19,0.059669934327967744
4.192,-0.0008702663269453811
4.194,0.04627282836222168
4.196,0.0012544186230682784
4.198,-0.0025097764028357483
4.2,0.004867519118289613
4.202,0.024933668172070943
4.204,0.014476386967475054
4.206,0.07424208743902036
4.208,0.006962060543697842
4.21,0.025449205047739506
4.212,0.03193022498722522
4.214,0.01879899280893928
4.216,-0.005793595805952541
4.218,0.025914181140555263
4.22,0.05155881212073563
4.222,0.0445546685381881
4.224,0.04539126914264278
4.226,0.020987078866886937
4.228,0.005798950895322093
4.23,0.03293236075406197
4.232,0.0421623281876481
4.234,0.057771241253088475
4.236,0.03529724859077221
4.238,0.06217355584504698
4.24,0.03375490262193276
4.242,0.023746186202707565
4.244,0.017206004103962218
4.246,0.054239114499455336
4.248,0.05094133436634426
4.25,0.06294817513483128
4.252,0.005857196275329065
4.2540000000000004,0.03804509552548218
4.256,0.06260370480404623
4.258,0.023997058280777573
4.26,0.08083767903522791
4.2620000000000005,0.0694246981463487
4.264,0.004997642731174574
4.266,0.027131267475418813
4.268,0.01375457797807795
4.2700000000000005,0.0818296756174825
4.272,0.0362808434232293
4.274,0.06432071584049855
4.276,0.02042484765398456
4.2780000000000005,0.0365507759195284
4.28,0.020434694578064034
4.282,0.03970527095456417
4.284,0.0424248321913997
4.2860000000000005,0.05821029314503892
4.288,0.05077893654746186
4.29,0.0225580663226434
4.292,0.056203010383601516
4.2940000000000005,0.0630853411492859
4.296,0.058769253414384534
4.298,0.07476471714972151
4.3,0.054103631896235106
4.3020000000000005,0.019013080025382167
4.304,0.07836009468802214
4.306,0.06533440075916423
4.308,0.028477359538971035
4.3100000000000005,0.04587065169902482
4.312,0.04699073292170576
4.314,0.08876826343611208
4.316,0.0324528735230301
4.3180000000000005,0.0387130598906756
4.32,0.05085587491650778
4.322,0.053668082911972496
4.324,0.080721456734154
4.3260000000000005,0.08804051293162347
4.328,0.06983017079022791
4.33,0.07994016692537968
4.332,0.0832662183313305
4.3340000000000005,0.07699059818869194
4.336,0.07073221960090897
4.338,0.08314406556879639
4.34,0.06977868798049693
4.3420000000000005,0.08553777690475062
4.344,0.07436158212648877
4.346,0.07749949117901547
4.348,0.109224528540051
4.3500000000000005,0.10431728600070972
4.352,0.09541579778796756
4.354,0.11276270789431032
4.356,0.11611543539724908
4.358,0.13007960592676882
4.36,0.12593812447381558
4.362,0.11611179649870312
4.364,0.16487285345450775
4.366,0.10930602932508665
4.368,0.13651594966655003
4.37,0.10770120457475826
4.372,0.1292879447672628
4.374,0.12654286351374822
4.376,0.15854613137319062
4.378,0.15489193388168557
4.38,0.16300203758064402
4.382,0.15346837694568022
4.384,0.14621754218294947
4.386,0.1576884731985398
4.388,0.1578544129367285
4.39,0.1328004173268531
4.392,0.1418052274068028
4.394,0.1409032804330381
4.396,0.14528335829221634
4.398,0.15084411810828172
4.4,0.16003392896315988
4.402,0.12465218478138881
4.404,0.14249904544636294
4.406,0.14709304261545728
4.408,0.12040180571138687
4.41,0.11986689753729884
4.412,0.12387528278659825
4.414,0.1640353677150307
4.416,0.11672642867843644
4.418,0.09855893578386629
4.42,0.1574620926042381
4.422,0.09836294344971179
4.424,0.09704344655264607
4.426,0.10191113466511906
4.428,0.11772666397637686
4.43,0.09349030445626563
4.432,0.061659578622375054
4.434,0.0946754060445752
4.436,0.08592369004702084
4.438,0.09895920320007011
4.44,0.0713974980362149
4.442,0.051470586469092486
4.444,0.03815451317209837
4.446,0.04251433937594454
4.448,0.006830573765800535
4.45,0.03882885855831575
4.452,-0.025167299536148807
4.454,0.046633859392291185
4.456,-0.01270517057856228
4.458,-0.028419212739306452
4.46,-0.0016243251724135169
4.462,-0.030493549886423825
4.464,-0.03621049968237655
4.466,0.0032009940935687764
4.468,-0.04182321801697582
4.47,-0.04589970836021419
4.472,-0.02498298914130398
4.474,-0.02170880255723795
4.476,-0.014009258717214049
4.478,-0.005947291614630076
4.48,0.02337516233660456
4.482,0.01977924500382371
4.484,0.033114793032989726
4.486,0.04559011102993301
4.488,0.10598228374389755
4.49,0.12467316819322052
4.492,0.14161162944980576
4.494,0.16889494342567815
4.496,0.2519063783128184
4.498,0.31324011598926893
4.5,0.331849568568378
4.502,0.39732699607178507
4.5040000000000004,0.436635303763113
4.506,0.5071085155313448
4.508,0.5393994841144287
4.51,0.6092984071094086
4.5120000000000005,0.6666746798841106
4.514,0.7027986564941476
4.516,0.7705840658915031
4.518,0.8358227164082046
4.5200000000000005,0.8407367950344646
4.522,0.8966023537808713
4.524,0.9430894430847154
4.526,0.9537867963566828
4.5280000000000005,0.9893914814152397
4.53,0.9989981370229963
4.532,1.0087930761665813
4.534,1.0209707075796126
4.5360000000000005,1.0174343203263772
4.538,1.0573621007870975
4.54,1.0073537605109464
4.542,1.0590643056650058
4.5440000000000005,0.9977735833887916
4.546,0.9747445497456259
4.548,0.9532942645285984
4.55,0.9157972402757367
4.5520000000000005,0.8661941901307277
4.554,0.8109135807225036
4.556,0.769450411543568
4.558,0.7509150544050236
4.5600000000000005,0.7301567682849
4.562,0.6280645613871774
4.564,0.6174362622399574
4.566,0.5293645341487824
4.5680000000000005,0.49945316462652156
4.57,0.4527711596230636
4.572,0.3997859931614751
4.574,0.3335225652789809
4.5760000000000005,0.31847916468587945
4.578,0.30864814406729246
4.58,0.24926415202050894
4.582,0.23618751079744413
4.5840000000000005,0.16715454931853743
4.586,0.09872542895161748
4.588,0.15231189856448663
4.59,0.14951006354165
4.5920000000000005,0.08171860642380471
4.594,0.07469933975237959
4.596,0.07700481406120227
4.598,0.03574527864112022
4.6000000000000005,0.0712063711878342
4.602,0.030141093980174928
4.604,0.05536828229644888
4.606,0.02869798888773861
4.6080000000000005,0.02900881047565859
4.61,0.030386371962348887
4.612,0.017802928639100095
4.614,0.032857584615130456
4.616,0.02043699145087699
4.618,0.03522544975031941
4.62,0.043760165412566124
4.622,0.009272267546710298
4.624,0.025333833296460776
4.626,0.03933018106685527
4.628,0.019024356451791
4.63,0.05365180713639105
4.632,0.020508349178905667
4.634,0.05505892739294481
4.636,0.040999214014364516
4.638,0.05068338906186958
4.64,0.008483534626823802
4.642,0.07313285872384866
4.644,0.023296449459863915
4.646,0.06309648914718384
4.648,0.04948089043890868
4.65,0.05266759126701246
4.652,0.02172441974631864
4.654,0.06420599720982899
4.656,0.06525568260359953
4.658,0.040645764401433755
4.66,0.05331537037764897
4.662,0.007040081633145421
4.664,0.06129953268175388
4.666,0.04979173230684838
4.668,-0.014348966754913258
4.67,0.06834619434985123
4.672,0.04934314770123285
4.674,0.04955382525254858
4.676,0.03168948869645506
4.678,0.09103043318622898
4.68,0.019913173220527138
4.682,0.048615842692141586
4.684,0.033189186800466945
4.686,0.06285956897188762
4.688,0.0622431219467635
4.69,0.04890462505680145
4.692,0.04963128974581051
4.694,0.06068679814076066
4.696,0.04334657969121081
4.698,0.014815886786727604
4.7,0.01450236710935957
4.702,0.05702076905559559
4.704,0.02524870505446084
4.706,0.007652407169921183
4.708,0.01675277247063994
4.71,0.037551737650473954
4.712,0.019738321374305964
4.714,0.02018833694672175
4.716,0.03318382314270158
4.718,0.03625713660973308
4.72,0.023834535715423794
4.722,0.0627824179956605
4.724,0.026905556125669135
4.726,0.03947297179201447
4.728,0.023579509951153963
4.73,-0.02649497134328705
4.732,0.0004704094680577772
4.734,0.05112217091011851
4.736,0.022661084381571307
4.738,0.06513025458997464
4.74,0.06187434618461038
4.742,0.0299236909764246
4.744,0.013971736941414124
4.746,0.024372529181749158
4.748,-0.01678337337398185
4.75,-0.014112383471173627
4.752,0.05498682338851554
4.7540000000000004,0.03429904075465319
4.756,0.02134544415318204
4.758,0.02174245550644691
4.76,0.03788687280524012
4.7620000000000005,0.024695032290886265
4.764,0.03572200932711565
4.766,0.03453425371241202
4.768,0.03626484042406125
4.7700000000000005,0.03750262612949991
4.772,0.031754549971773315
4.774,-0.03384758303580737
4.776,-0.00609096882299566
4.7780000000000005,0.01522405079219842
4.78,0.04030405592057971
4.782,0.013948412324936994
4.784,-0.010013618052286042
4.7860000000000005,-0.035930472350314525
4.788,-0.008308548147695216
4.79,-0.023416273993846992
4.792,0.019174317028087882
4.7940000000000005,0.04958574557564205
4.796,-0.05694851830250121
4.798,0.006583737480855521
4.8,-0.037298015477327195
4.8020000000000005,-0.004147357554153838
4.804,-0.008597024158642018
4.806,-0.03564423808262038
4.808,-0.009578818293687813
4.8100000000000005,-0.030138623509582674
4.812,-0.038015515651585056
4.814,-0.06159636213679501
4.816,-0.04290247988813693
4.8180000000000005,-0.04173169824369812
4.82,-0.034771151040701415
4.822,-0.08202061603092971
4.824,-0.033804966235682146
4.8260000000000005,-0.021132129996013313
4.828,-0.048290317981812214
4.83,-0.07017290707481504
4.832,-0.08305540524171803
4.8340000000000005,-0.06570260288651031
4.836,-0.09332308575358178
4.838,-0.09169766276538686
4.84,-0.08333184570639121
4.8420000000000005,-0.05433792195029305
4.844,-0.08065957953973746
4.846,-0.130961988257842
4.848,-0.05428600420818758
4.8500000000000005,-0.10759858377745934
4.852,-0.08101414476816834
4.854,-0.09748326280220412
4.856,-0.15586171141244465
4.8580000000000005,-0.10100410626842155
4.86,-0.09674619926849237
4.862,-0.12096809882398855
4.864,-0.1350623497838366
4.866,-0.14359346411746746
4.868,-0.14918704551463866
4.87,-0.12294058192792925
4.872,-0.14700686131280316
4.874,-0.14191936823499007
4.876,-0.16155005272552347
4.878,-0.1151737016567453
4.88,-0.12655426984608
4.882,-0.1108371076791692
4.884,-0.13065347638783736
4.886,-0.10258747321153558
4.888,-0.12924830681728663
4.89,-0.12897164231063907
4.892,-0.1059234642049682
4.894,-0.15744059112627426
4.896,-0.1611837852384143
4.898,-0.11171607811770277
4.9,-0.15620722883008728
4.902,-0.13331868251129558
4.904,-0.1384612330077523
4.906,-0.15271168094332627
4.908,-0.1396771275656755
4.91,-0.16473931512111567
4.912,-0.1304947643428953
4.914,-0.05372000692323392
4.916,-0.09276896091303871
4.918,-0.088368167136504
4.92,-0.12289990104454207
4.922,-0.09362071318708384
4.924,-0.08833563488647365
4.926,-0.1040784825186237
4.928,-0.10589248674172703
4.93,-0.12633181434398918
4.932,-0.11259576230663905
4.934,-0.06393755641971044
4.936,-0.1056132431831196
4.938,-0.10455987349740571
4.94,-0.11998171520600032
4.942,-0.07776218975644435
4.944,-0.06740144509226188
4.946,-0.07174914837064526
4.948,-0.09040156059224261
4.95,-0.10431958044527051
4.952,-0.07296493383608307
4.954,-0.05302163458105775
4.956,-0.07266981996360379
4.958,-0.05617273525422742
4.96,-0.025781252443729315
4.962,-0.051607912776172826
4.964,-0.04747178665690262
4.966,-0.03499043064308212
4.968,-0.06224302233901882
4.97,-0.05415515206349335
4.972,-0.00987374569445066
4.974,-0.018142319309810636
4.976,-0.03572995924368326
4.978,-0.0355170560875462
4.98,-0.023170475204347812
4.982,-0.05872573826045958
4.984,-0.03301569737604099
4.986,-0.017954190296612386
4.988,-0.036431155187225214
4.99,-0.05589773521952113
4.992,-0.040693956908804625
4.994,0.010202584603057431
4.996,-0.028558260795399602
4.998,0.006918431120318137
5.0,0.001824665084452736
5.002,-0.04047565345113559
5.0040000000000004,0.00388241136308827
5.006,0.009559405539653905
5.008,-0.0052320554252248234
5.01,-0.010941046406996863
5.0120000000000005,0.0025132933641776115
5.014,0.004210280895134108
5.016,-0.000341547852219487
5.018,-0.03205416034532369
5.0200000000000005,-0.025451941991773797
5.022,0.013828776745839003
5.024,-0.025605674644867585
5.026,0.004771442323346081
5.0280000000000005,0.005761170104488098
5.03,0.00689599224534012
5.032,-0.007941937471011542
5.034,-0.011446731068462005
5.0360000000000005,0.004065282087520195
5.038,0.00810736005247154
5.04,0.0010116233039922915
5.042,-0.02056554862819185
5.0440000000000005,-0.017340439330651818
5.046,0.03273233796416165
5.048,0.03261891182373639
5.05,-0.016375380800366504
5.0520000000000005,-0.01056000724535872
5.054,-0.021529879103337434
5.056,-0.019520295442560377
5.058,-0.011818560452803495
5.0600000000000005,-0.024335182008149284
5.062,-0.028492330642621532
5.064,0.00027156411965374694
5.066,-0.014746446922806054
5.0680000000000005,0.016247261757080505
5.07,-0.026354209747810633
5.072,-0.020609934758530322
5.074,0.0006004603824326379
5.0760000000000005,-0.04580359616197972
5.078,-0.00546127870729959
5.08,-0.041206143957014725
5.082,-0.024046551031441897
5.0840000000000005,-0.022720890719229718
5.086,-0.013178946544197056
5.088,-0.010263113690202424
5.09,-0.03931007719318154
5.0920000000000005,-0.015758069845410443
5.094,-0.042252716573194266
5.096,-0.013552338495356694
5.098,-0.02186450820220118
5.1000000000000005,-0.02238580170294858
5.102,0.012058632769726498
5.104,-0.0035792854885755496
5.106,-0.033524501150450046
5.1080000000000005,-0.0002629371335225421
5.11,-0.004533436494958257
5.112,0.025119876291610457
5.114,-0.035326523907189475
5.1160000000000005,-0.028929038636563084
5.118,0.022806554603365333
5.12,-0.02173420881725923
5.122,0.011506571272477522
5.124,-0.025178692442204453
5.126,-0.02776166219229552
5.128,-0.017409480034313828
5.13,-0.01913767815480983
5.132,-0.03716051602163813
5.134,-0.029458695596731282
5.136,-0.037457003016376354
5.138,-0.01580511230246195
5.14,-0.009732678031513151
5.142,-0.02137765318833751
5.144,-0.016414551468988216
5.146,-0.0295210793204125
5.148,0.0019968365245882622
5.15,-0.03703043073994132
5.152,-0.018113887346596476
5.154,-0.011847810062846057
5.156,0.011363431545391496
5.158,0.006230048027624775
5.16,0.0024097286363125425
5.162,-0.0445207695198334
5.164,0.002272932586887778
5.166,0.02698606470885586
5.168,-0.024904953582363262
5.17,-0.030967566853706094
5.172,-0.018151654457485362
5.174,-0.023240458626059605
5.176,-0.024853413117347664
5.178,-0.022677319444261716
5.18,-0.0026778018857103736
5.182,-0.030718450908183873
5.184,-0.02351346033682435
5.186,0.026661636716550068
5.188,0.03183143430656286
5.19,0.017310938231806378
5.192,-0.004663940599269854
5.194,0.031330954084887105
5.196,0.03873111186292025
5.198,-0.004130426579632508
5.2,-0.0011568942964073348
5.202,0.029862749762812547
5.204,0.010699312040304089
5.206,0.07207236534045157
5.208,0.035587617439530914
5.21,0.06942175855155151
5.212,0.048121174488360355
5.214,0.07133274101346514
5.216,0.02154749569809304
5.218,0.04488344975861319
5.22,0.07456264754373547
5.222,0.05514831792847064
5.224,0.07371676663913777
5.226,0.07245854197559487
5.228,0.06568003864095287
5.23,0.02961909380807687
5.232,0.09887395288935591
5.234,0.08263687459003498
5.236,0.06127932636732382
5.238,0.08065763041636727
5.24,0.07187277336907139
5.242,0.07696597098002136
5.244,0.054694787022465316
5.246,0.08325692924196015
5.248,0.03409531867343425
5.25,0.08381806851454196
5.252,0.03136300342765319
5.2540000000000004,0.06816423076608907
5.256,0.04565739168994324
5.258,0.04440576663419008
5.26,0.09929564230974652
5.2620000000000005,0.05261762849598764
5.264,0.04789965587470469
5.266,0.033079347921859355
5.268,0.036373009933498485
5.2700000000000005,0.03553428259852459
5.272,0.009902044360879436
5.274,0.02478040758692649
5.276,0.045226226137972794
5.2780000000000005,0.05420567894988102
5.28,0.02525250425153572
5.282,0.01275571140365176
5.284,0.006180983590497242
5.2860000000000005,-0.023537978806860586
5.288,0.020500993933727788
5.29,-0.024236271090175614
5.292,0.01858503517930259
5.2940000000000005,-0.017779297962980993
5.296,-0.0056010006043058155
5.298,-0.04872904509205417
5.3,-0.0567722726843964
5.3020000000000005,-0.03097325427342374
5.304,-0.029586717894093034
5.306,-0.07287870800287691
5.308,-0.05751396502824571
5.3100000000000005,-0.08115558809628708
5.312,-0.1028681631232283
5.314,-0.07158413002888991
5.316,-0.1068626383375528
5.3180000000000005,-0.05852263206578353
5.32,-0.13901009480509066
5.322,-0.12973074346564528
5.324,-0.12998447550767922
5.3260000000000005,-0.15757084185887144
5.328,-0.1847403568617358
5.33,-0.1124370272966788
5.332,-0.1119568753979299
5.3340000000000005,-0.10996360184924822
5.336,-0.10449704619719863
5.338,-0.07207480370322505
5.34,-0.04190390133763952
5.3420000000000005,-0.01650615280013998
5.344,-0.03454300931941577
5.346,-0.007854088912123705
5.348,0.09999695863209605
5.3500000000000005,0.09802795587018565
5.352,0.14285927745503096
5.354,0.16370748137968197
5.356,0.20931337382678908
5.3580000000000005,0.2723945055252508
5.36,0.34573891010236707
5.362,0.3613244667463644
5.364,0.4293261433800452
5.3660000000000005,0.5210385044715812
5.368,0.49944465080701156
5.37,0.5746408707616855
5.372,0.6133415725199713
5.3740000000000006,0.6447655408738154
5.376,0.6750820331460743
5.378,0.8123930218800073
5.38,0.8161470081388501
5.382,0.8509508680678217
5.384,0.8572691552355374
5.386,0.9218063979556138
5.388,0.9382802833832932
5.39,0.9150944103760414
5.392,0.9279209060971491
5.394,0.9623924458093275
5.396,0.9505817619576764
5.398,0.9114763780201817
5.4,0.8747536925529464
5.402,0.8667428501571907
5.404,0.8568732672941027
5.406,0.8110368509515695
5.408,0.7778992658925997
5.41,0.7924662357228759
5.412,0.6765775215539662
5.414,0.6524293282701227
5.416,0.613919500251982
5.418,0.5354720079551418
5.42,0.5005058689624164
5.422,0.4774426068591981
5.424,0.436069698998555
5.426,0.36822443622861933
5.428,0.3033595473229602
5.43,0.31685324001502485
5.432,0.24926655004134218
5.434,0.21561039331251858
5.436,0.13939114583297874
5.438,0.12199285299667484
5.44,0.10177207990644013
5.442,0.08253715074347193
5.444,0.04127506885114054
5.446,-0.012254735653886933
5.448,0.0017783627047465306
5.45,0.018561907299792846
5.452,-0.030780561399948815
5.454,0.00996417141882654
5.456,-0.06438883009073589
5.458,-0.04871370650004153
5.46,-0.07257332472979172
5.462,-0.07452786098736314
5.464,-0.07620483739360324
5.466,-0.06059620885904532
5.468,-0.06479286888176972
5.47,-0.06235291717447799
5.472,-0.10236596788917185
5.474,-0.04844637969936196
5.476,-0.058277328381803974
5.478,-0.06034074019584486
5.48,-0.03406818904183294
5.482,-0.052361488693718504
5.484,-0.056407139559058406
5.486,-0.02344055902826144
5.488,-0.087722126304249
5.49,-0.007117633631186055
5.492,-0.05435837634335194
5.494,0.09676541311961726
5.496,0.14015859960756485
5.498,0.14772470328333268
5.5,0.14100884641288153
5.502,0.165539504966883
5.5040000000000004,0.13749572184802084
5.506,0.1290555633309434
5.508,0.13453648524933762
5.51,0.14013499987648426
5.5120000000000005,0.1261918590587114
5.514,0.1641283771860495
5.516,0.1632592766670881
5.518,0.17433925324684799
5.5200000000000005,0.15442079402079292
5.522,0.14161188674746314
5.524,0.13826643267846378
5.526,0.1202400321692353
5.5280000000000005,0.18573900799230264
5.53,0.13137664398255175
5.532,0.1420978217530946
5.534,0.17071727491886274
5.5360000000000005,0.14035870853651636
5.538,0.18948772335932107
5.54,0.09928071865898272
5.542,0.16167900366070204
5.5440000000000005,0.10829620360359568
5.546,0.17044694841975408
5.548,0.1631094944865259
5.55,0.13249816727564517
5.5520000000000005,0.13912381211963762
5.554,0.1440210512848853
5.556,0.15327338089395867
5.558,0.1486575928150705
5.5600000000000005,0.1313386325542647
5.562,0.11863575518549757
5.564,0.11814290042821216
5.566,0.15685966651165903
5.5680000000000005,0.1431147376345748
5.57,0.1690067456015766
5.572,0.14962465129343558
5.574,0.17624710479413153
5.5760000000000005,0.1578073179903675
5.578,0.15970417351062866
5.58,0.12542671544738926
5.582,0.16961558705542457
5.5840000000000005,0.15367649411830736
5.586,0.1330746228258506
5.588,0.1559260758784902
5.59,0.09075888530110723
5.5920000000000005,0.1301734105534128
5.594,0.19156365123341823
5.596,0.13347248652938726
5.598,0.15089390579159895
5.6000000000000005,0.14469869884441136
5.602,0.1936699939887654
5.604,0.10686241604005998
5.606,0.1434908296965776
5.6080000000000005,0.1375281677212169
5.61,0.15573469838808918
5.612,0.13328717155494385
5.614,0.17035829192667812
5.6160000000000005,0.11418197527186474
5.618,0.12980936880849483
5.62,0.10958609815267555
5.622,0.18518097490283952
5.6240000000000006,0.13125585296297254
5.626,0.13091337197780362
5.628,0.15630279351297977
5.63,0.15667029355026532
5.632,0.13831293624943872
5.634,0.09399009623661486
5.636,0.12177856608634402
5.638,0.1255086754672768
5.64,0.13332086639291407
5.642,0.1434211138304676
5.644,0.15549511343116473
5.646,0.11771656795606353
5.648,0.13778824158828099
5.65,0.11323582318190392
5.652,0.0905361090434843
5.654,0.09760935877677615
5.656,0.10579404952613794
5.658,0.10712142795240272
5.66,0.1040259449225423
5.662,0.08767873952353657
5.664,0.07096969037856336
5.666,0.08891040295929534
5.668,0.11810327432765041
5.67,0.06549893803596615
5.672,0.07884142834931589
5.674,0.06583887588318837
5.676,0.08738610690102441
5.678,0.06242071061750104
5.68,0.07030157462474501
5.682,0.06095371777884658
5.684,0.0655163757948945
5.686,0.09096900668996373
5.688,0.09404588621048213
5.69,0.08182733667950585
5.692,0.04085566741286707
5.694,-0.16886874382848727
5.696,-0.14942309598514342
5.698,-0.16155248329002703
5.7,-0.1593031612564304
5.702,-0.15362892579820364
5.704,-0.15813283099111905
5.706,-0.1275430442654257
5.708,-0.20522767941316553
5.71,-0.20160222061655625
5.712,-0.16318809163661674
5.714,-0.17684038757778836
5.716,-0.2167338268031554
5.718,-0.18759895719546765
5.72,-0.17199568361096385
5.722,-0.1569626175133293
5.724,-0.1731749511194816
5.726,-0.17228308062633407
5.728,-0.18352817641847852
5.73,-0.17838129186245716
5.732,-0.19220025808215957
5.734,-0.1762246379189143
5.736,-0.20191141624891107
5.738,-0.20236407749619822
5.74,-0.18587333455397545
5.742,-0.19857077468265846
5.744,-0.20666968013117404
5.746,-0.17705090013064803
5.748,-0.17298353366649694
5.75,-0.17838682473001052
5.752,-0.19197223434762642
5.7540000000000004,-0.20840136566296957
5.756,-0.1803787477157257
5.758,-0.18542112890303494
5.76,-0.17063531702924256
5.7620000000000005,-0.1567038643592911
5.764,-0.18277256765598332
5.766,-0.19394441532727294
5.768,-0.1582793690009371
5.7700000000000005,-0.17883844974892246
5.772,-0.21085175308557524
5.774,-0.15753585421638014
5.776,-0.1644429706414474
5.7780000000000005,-0.12547952595734696
5.78,-0.14897111499760854
5.782,-0.1439201062369492
5.784,-0.1512423719706109
5.7860000000000005,-0.14252100039132212
5.788,-0.14716754795674775
5.79,-0.11691635207876222
5.792,-0.14598853798663725
5.7940000000000005,-0.1415242871950877
5.796,-0.13924330740132168
5.798,-0.10809027447897625
5.8,-0.12247175056996853
5.8020000000000005,-0.08880459052266114
5.804,-0.13137516023331283
5.806,-0.11133269646840677
5.808,-0.10026042087090783
5.8100000000000005,-0.0723386560520675
5.812,-0.07857065621949118
5.814,-0.11170488660272582
5.816,-0.06165518364171006
5.8180000000000005,-0.06991408070271087
5.82,-0.08945668495869175
5.822,-0.12385082288647724
5.824,-0.08080049389890215
5.8260000000000005,-0.048029368755232324
5.828,-0.06926825604009457
5.83,-0.07536153997633753
5.832,-0.06518825960677717
5.8340000000000005,-0.09706884247227779
5.836,-0.057246458135648895
5.838,-0.06210278552432503
5.84,-0.07486448516716454
5.8420000000000005,-0.03949809994892754
5.844,-0.05079788280798477
5.846,-0.05559036381063506
5.848,-0.0765009216307199
5.8500000000000005,-0.08514468009590137
5.852,-0.09247278684180144
5.854,-0.04949701335554654
5.856,0.0058946132590028365
5.8580000000000005,-0.03651378325485192
5.86,-0.02282222758300604
5.862,-0.05514787419040773
5.864,-0.0385397690207646
5.8660000000000005,-0.03702236189876965
5.868,-0.04342797012688872
5.87,-0.043196860670787283
5.872,-0.021016753158667262
5.8740000000000006,-0.017815060195980833
5.876,-0.035328451864087985
5.878,-0.027163542454906608
5.88,-0.05886467763760107
5.882000000000001,-0.04428785133407865
5.884,-0.0030497505295042334
5.886,-0.026960873003120146
5.888,-0.03126817012970244
5.89,-0.05832062975055392
5.892,-0.03671865535744591
5.894,-0.055801348745703944
5.896,-0.015311290372380968
5.898,-0.015650843646815706
5.9,-0.019618260715736323
5.902,-0.007266107232131494
5.904,-0.00889569989927555
5.906,-0.02671641518221765
5.908,-0.025016229686651213
5.91,0.006117738477946758
5.912,-0.05465232848284626
5.914,-0.018825018229608498
5.916,-0.008093825420168945
5.918,-0.004002867410232534
5.92,-0.04424517785210741
5.922,0.004557980644997486
5.924,-0.034106873388750084
5.926,0.016667806558237446
5.928,-0.004392492005529865
5.93,-0.04042071502520916
5.932,0.002495278833140361
5.934,-0.0026744492346588403
5.936,0.005722015423423618
5.938,-0.00129730591529866
5.94,-0.008468025207754436
5.942,0.006449535385801554
5.944,0.004747550593503844
5.946,0.03576845462410742
5.948,0.016810989564968074
5.95,0.019384992574090747
5.952,0.0050320784024896325
5.954,-0.023459688963177378
5.956,0.00642279784039813
5.958,0.0022461792745440915
5.96,-0.011817822178310951
5.962,-0.04026468089691379
5.964,0.002862957752408608
5.966,-0.013555847969125031
5.968,0.0034495608808790654
5.97,-0.05357164445486497
5.972,-0.02431605585485097
5.974,0.012650749602624594
5.976,0.031158195513835075
5.978,-0.046250498159968456
5.98,0.05351526482013329
5.982,-0.005788689131893552
5.984,-0.012667829842441396
5.986,-0.0330838255829096
5.988,-0.028604277254116166
5.99,-0.04206536505160889
5.992,-0.020477326607482863
5.994,-0.019934556884721413
5.996,-0.031915229812313095
5.998,0.003919761051277894
6.0,3.181809515296046e-05
6.002,-0.011560823575157416
6.0040000000000004,0.012609743547408417
6.006,-0.03345656522268191
6.008,-0.019979732879768074
6.01,0.004871430961265464
6.0120000000000005,-0.003286067726269733
6.014,-0.014387270570472434
6.016,0.0072668621407397625
6.018,0.02471154068033443
6.0200000000000005,0.027522531044204532
6.022,-0.02326431479024739
6.024,-0.0071166192909591225
6.026,0.05896819983750726
6.0280000000000005,0.015978969974494602
6.03,0.03344611039872854
6.032,0.03294703193806559
6.034,0.025585805014335994
6.0360000000000005,0.05114403691315001
6.038,0.055251453355744704
6.04,0.05945501079682011
6.042,0.04176287202513687
6.0440000000000005,0.013365386586913254
6.046,0.039460462453799555
6.048,0.015633321057579266
6.05,0.04128353585739504
6.0520000000000005,0.033667813132566046
6.054,0.047288992385569564
6.056,0.023275882484306336
6.058,0.0897022932674226
6.0600000000000005,0.081717309910106
6.062,0.0725890381131674
6.064,0.06523787847117073
6.066,0.07116442815481054
6.0680000000000005,0.07604416474874205
6.07,0.09317634593680683
6.072,0.08129632708885412
6.074,0.07192710997849751
6.0760000000000005,0.0881647776666023
6.078,0.12458367722325485
6.08,0.09300535304767787
6.082,0.11832280339934481
6.0840000000000005,0.06961227952101282
6.086,0.133034056092716
6.088,0.07527722712849746
6.09,0.12407347140850153
6.0920000000000005,0.10489926838580046
6.094,0.09364957097756496
6.096,0.12687716558542822
6.098,0.09665718562980226
6.1000000000000005,0.12214995126568756
6.102,0.13347695565046708
6.104,0.12326308037975311
6.106,0.12762123847609416
6.1080000000000005,0.13665685321206494
6.11,0.1280396326623156
6.112,0.15446836283268497
6.114,0.10994972076624562
6.1160000000000005,0.06991411920166453
6.118,0.08359066177698724
6.12,0.10154815663128677
6.122,0.07799418523729422
6.1240000000000006,0.1098790133671897
6.126,0.06107465954275016
6.128,0.10130488686982571
6.13,0.08775962568714513
6.132000000000001,0.08479481238605693
6.134,0.07486987241562333
6.136,0.053301471055308865
6.138,0.06970723967839379
6.140000000000001,0.07420526972329958
6.142,0.07798351474326348
6.144,0.05213159847222957
6.146,0.05923308915364121
6.148,0.01919826706261738
6.15,0.05505530156921554
6.152,0.04263503617293725
6.154,0.051858867390145565
6.156,0.06896597348778599
6.158,0.05787638939786132
6.16,-0.019777616294835865
6.162,0.0538645046494342
6.164,-0.04387988434730096
6.166,-0.011147923362231731
6.168,0.015251607955165433
6.17,-0.027380195883256638
6.172,-0.028559243371966997
6.174,-0.02494599532375709
6.176,0.01089198071845815
6.178,-0.04414282323769894
6.18,-0.051432127222997205
6.182,-0.055813226158418425
6.184,-0.01368627371956331
6.186,-0.04941402132287967
6.188,-0.07641771977894898
6.19,-0.021305953915824266
6.192,-0.01201526425034316
6.194,-0.021879096986997592
6.196,-0.01994112596496559
6.198,0.03872164922402313
6.2,0.022830993217116055
6.202,0.09462203776458884
6.204,0.11211145119567673
6.206,0.11982724764389976
6.208,0.18639738887952953
6.21,0.2335814653866447
6.212,0.2482208721186385
6.214,0.34318569581961245
6.216,0.3596656898660914
6.218,0.44146300040673003
6.22,0.4461948437984389
6.222,0.5281928123602785
6.224,0.6038377985356376
6.226,0.6771411539917774
6.228,0.6629723166951533
6.23,0.7018519202092339
6.232,0.7651732847825445
6.234,0.8417883506863859
6.236,0.8524946086450376
6.238,0.8984466933665801
6.24,0.9605650368663656
6.242,0.943766182082834
6.244,0.9836159965910953
6.246,0.9847629567772449
6.248,1.0501054301743782
6.25,1.0416266614677707
6.252,1.0258793942220301
6.2540000000000004,1.0005915026497338
6.256,0.9978312533403342
6.258,0.9531202205585999
6.26,0.9652128722388967
6.2620000000000005,0.9379342857115902
6.264,0.8981167320303103
6.266,0.8714899723627977
6.268,0.8460958893904006
6.2700000000000005,0.7864070641146117
6.272,0.7406596425738631
6.274,0.6703258107015965
6.276,0.6567806395612437
6.2780000000000005,0.5806355222384698
6.28,0.5403404012795056
6.282,0.5022285410125942
6.284,0.41121454684892766
6.2860000000000005,0.3749979096205967
6.288,0.3441151214677075
6.29,0.3319034551333437
6.292,0.2857985850313001
6.2940000000000005,0.23015420908242265
6.296,0.22452645130206217
6.298,0.1579230448347793
6.3,0.14628590058125585
6.3020000000000005,0.14600453332380744
6.304,0.07563869171820786
6.306,0.09832166017778501
6.308,0.09222854876660942
6.3100000000000005,0.04041682197904642
6.312,0.058111015474227805
6.314,-0.008465389355248827
6.316,0.0023166217136321183
6.3180000000000005,-0.0067016696423775664
6.32,0.016570141939523192
6.322,0.020782663386057547
6.324,0.01849784757476925
6.3260000000000005,0.004840932430279117
6.328,0.0025301205673959708
6.33,0.018388175096936066
6.332,0.029274172628340554
6.3340000000000005,0.03592675585152688
6.336,0.004100926730968447
6.338,0.02987017354353874
6.34,0.03864277235140042
6.3420000000000005,0.044161982293017245
6.344,-0.008234386676125336
6.346,0.03693061188116149
6.348,0.05010028790718444
6.3500000000000005,0.25119329716600974
6.352,0.22426245039912618
6.354,0.2633876500582084
6.356,0.25467284189909667
6.3580000000000005,0.25199668876864806
6.36,0.2624978627074039
6.362,0.2592742389328846
6.364,0.2701486862896233
6.3660000000000005,0.2543640564970442
6.368,0.2569789127382947
6.37,0.19778331144286718
6.372,0.2699850772396931
6.3740000000000006,0.24248963129127732
6.376,0.28239015776808624
6.378,0.2562068697601865
6.38,0.2213598179427567
6.382000000000001,0.2180554210467911
6.384,0.23555014771335364
6.386,0.22622810120549144
6.388,0.23075948373180444
6.390000000000001,0.24733878502368054
6.392,0.25846825872397133
6.394,0.2467082511994832
6.396,0.2202212635061859
6.398000000000001,0.2529140281540989
6.4,0.24183673204320622
6.402,0.20598387580818914
6.404,0.2744697283715211
6.406,0.2350695255154499
6.408,0.24197000976053876
6.41,0.2466405335111826
6.412,0.2372908781947871
6.414,0.25649617647460643
6.416,0.2584495596919525
6.418,0.24585898524381536
6.42,0.24853526956108662
6.422,0.26773211735418506
6.424,0.2388765955301058
6.426,0.2372739038450783
6.428,0.27031191222104783
6.43,0.21505134452296948
6.432,0.24948684360003165
6.434,0.23979435662598672
6.436,0.23942067143153917
6.438,0.22802254381109624
6.44,0.2348119431748834
6.442,0.23701992042926015
6.444,0.23690309262586065
6.446,0.21494944135828356
6.448,0.2892351414748676
6.45,0.2690848788335968
6.452,0.23895292600729573
6.454,0.2607867103407655
6.456,0.2325318827216526
6.458,0.23031753002034
6.46,0.23618444599199223
6.462,0.24649916657697685
6.464,0.24700434221631606
6.466,0.21731503822204817
6.468,0.22327692925020748
6.47,0.22832370459203993
6.472,0.2261007484359776
6.474,0.24558774580977907
6.476,0.23650068276073463
6.478,0.23895136188459495
6.48,0.2664017241649151
6.482,0.24816741690076255
6.484,0.23890586881195508
6.486,0.23987306794188173
6.488,0.21445887531791352
6.49,0.21093818646314508
6.492,0.22144679944063791
6.494,0.20037398646745969
6.496,0.2262533864379299
6.498,0.21950094903187217
6.5,0.21953549172104286
6.502,0.21168017436480077
6.5040000000000004,0.2196348455698635
6.506,0.21922525612881227
6.508,0.24926525178454034
6.51,0.23848786331091396
6.5120000000000005,0.20134527536311636
6.514,0.20154170585801628
6.516,0.19931448752008674
6.518,0.20886612629335433
6.5200000000000005,0.2059687793818412
6.522,0.1785215396426984
6.524,0.22859010508130614
6.526,0.178926901210672
6.5280000000000005,0.20913853885106493
6.53,0.1734358103591547
6.532,0.16278062411218097
6.534,0.17520110544758008
6.5360000000000005,0.17951577894025225
6.538,0.15868901516804174
6.54,0.17165926271986304
6.542,0.128991863503102
6.5440000000000005,0.16397949900906128
6.546,0.13002669551409746
6.548,0.12955733765523209
6.55,0.12240388740520788
6.5520000000000005,-0.06454545911674156
6.554,-0.056423897065934654
6.556,-0.0057446234207417235
6.558,-0.056114680780195686
6.5600000000000005,-0.03818367140811105
6.562,-0.06734830810260703
6.564,-0.06379799272441308
6.566,-0.08161863143321166
6.5680000000000005,-0.04913851847716827
6.57,-0.06094734023807054
6.572,-0.07373516806395664
6.574,-0.07913885040120648
6.5760000000000005,-0.08265417704269107
6.578,-0.0789922747232234
6.58,-0.12276686039666394
6.582,-0.06749499684435968
6.5840000000000005,-0.08599840185070123
6.586,-0.08836151606534698
6.588,-0.08893661452968689
6.59,-0.12245808460692165
6.5920000000000005,-0.03691582618344917
6.594,-0.12820220012514974
6.596,-0.07619010695986485
6.598,-0.12497425879051746
6.6000000000000005,-0.11502452264493405
6.602,-0.12418129873989453
6.604,-0.10382375532508736
6.606,-0.07719065753295164
6.6080000000000005,-0.13772239424759758
6.61,-0.09851995917397441
6.612,-0.08785910721881653
6.614,-0.11328732213913295
6.6160000000000005,-0.07862369822063381
6.618,-0.07741074181614283
6.62,-0.09405389434352776
6.622,-0.09068728597287307
6.6240000000000006,-0.06390806443324376
6.626,-0.09232194541814363
6.628,-0.0773216399326056
6.63,-0.08902088275160554
6.632000000000001,-0.08273029729449438
6.634,-0.07936784163121585
6.636,-0.07834269741522687
6.638,-0.06894531962583292
6.640000000000001,-0.04620045345431757
6.642,-0.04897294494962401
6.644,-0.07225857983927132
6.646,-0.053755270884798194
6.648000000000001,-0.0448288583833672
6.65,-0.0437418484934228
6.652,-0.01930449483984517
6.654,-0.02503592956957436
6.656000000000001,-0.026568204267385293
6.658,-0.06335143436189974
6.66,-0.00561413188511059
6.662,-0.03871251664853448
6.664,-0.04225971038172464
6.666,-0.021795504897513196
6.668,-0.03089934105370188
6.67,-0.052415057400496186
6.672,0.013583286868916272
6.674,-0.05316241344996817
6.676,0.03875095694413734
6.678,-0.01345901458220345
6.68,-0.025384564786789177
6.682,-0.051758750210691845
6.684,0.0006484439042730647
6.686,0.012386243804228488
6.688,0.0028277837717338578
6.69,-0.00865684243634067
6.692,0.001009147986620773
6.694,0.03134426366304936
6.696,0.04730427314509266
6.698,-0.014183819067877492
6.7,0.009564669279245833
6.702,0.012896591223971736
6.704,-0.04228114581046971
6.706,0.002923578297400895
6.708,0.027566293384536034
6.71,0.02745035042175032
6.712,0.008568039843960207
6.714,0.027633916115665163
6.716,0.017857728514373138
6.718,0.0012432569113576958
6.72,0.019002773081885298
6.722,0.011338299023588527
6.724,-0.005480719655874837
6.726,0.010205091823065079
6.728,0.042994456810731066
6.73,0.022935522084343594
6.732,0.03560977656088299
6.734,0.029270546654291477
6.736,0.05348381745754257
6.738,0.03964057593635155
6.74,0.013917854603145046
6.742,0.03575069796847207
6.744,0.003584894019915943
6.746,0.04007168491242886
6.748,0.010849281926643403
6.75,0.021896784844628238
6.752,0.05601721483618256
6.7540000000000004,0.0029429315904992977
6.756,0.034933122054757654
6.758,0.011122709306719878
6.76,0.0034480774698279425
6.7620000000000005,0.026667046927618957
6.764,0.033938600855969954
6.766,-0.02684592042645785
6.768,0.05934878175731411
6.7700000000000005,0.004240652680307364
6.772,0.01712197641628652
6.774,0.02449104370693333
6.776,0.04241739578480514
6.7780000000000005,0.06974003035914213
6.78,0.014004373008648482
6.782,0.032231468233640856
6.784,0.026470472327134825
6.7860000000000005,0.04946665698215868
6.788,0.03347078934808071
6.79,0.005824699906156969
6.792,0.05942286622912524
6.7940000000000005,0.031070676424243816
6.796,0.0096196723906117
6.798,0.0150365343851298
6.8,0.04112094637620894
6.8020000000000005,-0.003696915891864472
6.804,0.0258132176399645
6.806,0.062276970479449835
6.808,0.03477955405189915
6.8100000000000005,0.05763290713793024
6.812,0.015244253258930723
6.814,0.013403281404249711
6.816,0.023796408556586077
6.8180000000000005,0.00544214401768239
6.82,0.004537198335935491
6.822,0.02405964026643794
6.824,0.046788995470317625
6.8260000000000005,0.02764361419697843
6.828,0.029097419036923464
6.83,0.01110285473448074
6.832,0.014140547452320604
6.8340000000000005,-0.019619292564282367
6.836,0.027345172018801437
6.838,0.076932541017643
6.84,0.012447697897317336
6.8420000000000005,0.03329369032092879
6.844,0.046243243440726806
6.846,0.0224948121938828
6.848,0.010155196273343423
6.8500000000000005,0.05152330823694443
6.852,0.040287875155069035
6.854,-0.02226237187447446
6.856,0.018617967657085722
6.8580000000000005,0.021147295317194243
6.86,0.04893831873800007
6.862,0.041782317399329076
6.864,0.03880502107676933
6.8660000000000005,-0.041168966229580266
6.868,-0.002879142923230882
6.87,0.011610890905469429
6.872,0.03731102594756797
6.8740000000000006,0.029407438996923052
6.876,0.06085705914722046
6.878,-0.02201587598962074
6.88,0.008491705051537336
6.882000000000001,0.04386516538907738
6.884,0.030003057708162202
6.886,0.014140364392868164
6.888,0.022141645581190354
6.890000000000001,-0.0024431522715911633
6.892,0.0089220793361296
6.894,0.031180286423026234
6.896,0.05802135195610802
6.898000000000001,0.03852169504608623
6.9,0.032190258596941454
6.902,-0.004455911383653904
6.904,0.06458185057804518
6.906000000000001,0.046999198411157295
6.908,0.07664904912963086
6.91,0.06593450378053714
6.912,0.025503843488881888
6.914,0.0481638215952714
6.916,0.04900819993222702
6.918,0.04378251158334788
6.92,0.08231100608353971
6.922,0.06830456863658238
6.924,0.06936828129333295
6.926,0.11239375819941266
6.928,0.1099393704978065
6.93,0.07092374646822779
6.932,0.1238617074707066
6.934,0.06721503485206108
6.936,0.0922786501456306
6.938,0.09662345808906335
6.94,0.0973571806121514
6.942,0.11359454435062001
6.944,0.08229019469207038
6.946,0.1219895044257713
6.948,0.1148881371258261
6.95,0.13480697616103196
6.952,0.10547523086105584
6.954,0.10135476098401544
6.956,0.1448554139596194
6.958,0.13364804908398573
6.96,0.11628431842813286
6.962,0.11795137665633877
6.964,0.09583796218781673
6.966,0.10108094701880019
6.968,0.1314917643028336
6.97,0.10570956755336339
6.972,0.11631366592783875
6.974,0.06295935509738697
6.976,0.07496774709541187
6.978,0.09622916467829673
6.98,0.11454984133955548
6.982,0.08654374344798567
6.984,0.051613907225617504
6.986,0.0565851212184824
6.988,0.08136378000533948
6.99,0.07883309953964464
6.992,0.07011141733789135
6.994,0.047699343041510196
6.996,0.03245331218602246
6.998,0.03488465299767411
7.0,0.009102919382613019
7.002,0.02747181356610969
7.0040000000000004,0.010725606433574762
7.006,0.054888175088172855
7.008,0.03616968901629192
7.01,-0.0026830047361177042
7.0120000000000005,-0.030137045673375697
7.014,-0.0007478007565467036
7.016,-0.0067575076481947004
7.018,-0.02868784450113536
7.0200000000000005,-0.04920065456030951
7.022,-0.03146966442538015
7.024,-0.003976180865472367
7.026,-0.045713133908149836
7.0280000000000005,-0.052423013439197086
7.03,-0.06848198123456095
7.032,-0.032206519564537295
7.034,-0.09242896824452243
7.0360000000000005,-0.041521859532760386
7.038,-0.06566460964561077
7.04,-0.10460042483984176
7.042,-0.13559883737998307
7.0440000000000005,-0.05662650240923933
7.046,-0.08634964065486543
7.048,-0.06919101703088104
7.05,-0.04923842352169893
7.0520000000000005,-0.045924918998123586
7.054,-0.04263117903300183
7.056,0.005282577158978899
7.058,-0.007667664303260074
7.0600000000000005,0.08129543137465751
7.062,0.07592732978527908
7.064,0.09501913590327274
7.066,0.12438140697993225
7.0680000000000005,0.17530836232538638
7.07,0.22016443922810092
7.072,0.2964717086415481
7.074,0.37128877516873326
7.0760000000000005,0.40537669239537344
7.078,0.4227433564977154
7.08,0.5239413481093301
7.082,0.566751457356135
7.0840000000000005,0.6201881628225513
7.086,0.6478570697218647
7.088,0.718059163999472
7.09,0.7794642868461928
7.0920000000000005,0.8226305771811271
7.094,0.8496402700726615
7.096,0.8641889082158751
7.098,0.8758207530057409
7.1000000000000005,0.9152944041771118
7.102,0.9354481984139043
7.104,0.9493003650039096
7.106,0.9523025543384326
7.1080000000000005,0.961641699447187
7.11,0.9641765531291814
7.112,0.9257561619041856
7.114,0.9335072819571757
7.1160000000000005,0.9182432160129639
7.118,0.9217981516532285
7.12,0.8702257460311801
7.122,0.8097125898545543
7.1240000000000006,0.8033198498234014
7.126,0.7399054333831399
7.128,0.6669572115235218
7.13,0.6400069791368965
7.132000000000001,0.5965352169237917
7.134,0.5596047815113497
7.136,0.5391312160431185
7.138,0.45160742127244985
7.140000000000001,0.42596160196092436
7.142,0.3764845902537929
7.144,0.3323723322029995
7.146,0.25351170005103324
7.148000000000001,0.2680445355321832
7.15,0.2103203112340771
7.152,0.1678802022502879
7.154,0.1090820180693287
7.156000000000001,0.1066609552774091
7.158,0.06064317018354484
7.16,0.05289915228112241
7.162,0.03504647492966689
7.164000000000001,0.014336490440863388
7.166,-0.022444349411917072
7.168,0.012806059590998608
7.17,-0.0014414539608501992
7.172,-0.026026365577132924
7.174,-0.04124201076691022
7.176,-0.0698459426155855
7.178,-0.07605160329264762
7.18,-0.042457832604592655
7.182,-0.029677842886949052
7.184,-0.06855164516670448
7.186,-0.06350343257944265
7.188,-0.08657484601022683
7.19,-0.07093144955599884
7.192,-0.03431261702366977
7.194,-0.06032992449439198
7.196,-0.0556069595933044
7.198,-0.021915041924684936
7.2,-0.05222954716727905
7.202,-0.053474956051654726
7.204,-0.05450717931980768
7.206,-0.0442094824107168
7.208,0.15902402913107253
7.21,0.19235901002547587
7.212,0.16158787508230874
7.214,0.17051001104341984
7.216,0.20139088764953905
7.218,0.15387600514495842
7.22,0.18078736047031313
7.222,0.1843126733311498
7.224,0.1852083665120382
7.226,0.14057524683732592
7.228,0.19705203324031945
7.23,0.1712002928085465
7.232,0.15359125225516485
7.234,0.15239300676073686
7.236,0.1730573479676042
7.238,0.16370428217915384
7.24,0.15059184405449488
7.242,0.18104654491732325
7.244,0.17024651557734408
7.246,0.18040413083789572
7.248,0.19470271287908816
7.25,0.15210298917129456
7.252,0.16649563311259352
7.2540000000000004,0.2164763877458542
7.256,0.17796617657302533
7.258,0.1525373620781687
7.26,0.18762313809621894
7.2620000000000005,0.14394531153341913
7.264,0.16118210883911382
7.266,0.15465050447894865
7.268,0.1404690118574842
7.2700000000000005,0.14333467140463796
7.272,0.1940075817434944
7.274,0.16504832086740678
7.276,0.12778539873965053
7.2780000000000005,0.1718632562393028
7.28,0.2030212668785537
7.282,0.16127597803596153
7.284,0.16904686717841327
7.2860000000000005,0.12388182989706142
7.288,0.1633682468838205
7.29,0.17047647826704693
7.292,0.17180885875703455
7.2940000000000005,0.16629476515750705
7.296,0.16012022242408092
7.298,0.17078288742315567
7.3,0.13627048278320833
7.3020000000000005,0.13928242048582412
7.304,0.15799616265398186
7.306,0.18923947931439491
7.308,0.15172893169572554
7.3100000000000005,0.17727186818454418
7.312,0.1590810322087635
7.314,0.1675100397506982
7.316,0.1403415900485323
7.3180000000000005,0.17694725392814956
7.32,0.14719928606025515
7.322,0.1427133784622593
7.324,0.14199781229251324
7.3260000000000005,0.12859154232078085
7.328,0.11026500414248211
7.33,0.17568768084337544
7.332,0.1520442179707989
7.3340000000000005,0.13026678665548352
7.336,0.14405841312571138
7.338,0.16194939609414805
7.34,0.12111019582665088
7.3420000000000005,0.14720176211720193
7.344,0.12579361138626172
7.346,0.16998307076768127
7.348,0.08794059602511968
7.3500000000000005,0.13829775322227988
7.352,0.13244050314027567
7.354,0.12514716502865886
7.356,0.13334642520428286
7.3580000000000005,0.09616144061309428
7.36,0.11075713438741128
7.362,0.13487300319135717
7.364,0.09722098210699946
7.3660000000000005,0.07791587597407083
7.368,0.13595127116084327
7.37,0.09592724813782189
7.372,0.1267176223419683
7.3740000000000006,0.10085606166576316
7.376,0.12770839075953633
7.378,0.08670837530269437
7.38,0.12396858387724428
7.382000000000001,0.10201486267178114
7.384,0.05926144590592447
7.386,0.039142483622727445
7.388,0.07770433214198919
7.390000000000001,0.10850010121006456
7.392,0.06644498947887059
7.394,0.060003147630833954
7.396,0.07537233567384
7.398000000000001,0.045746465655541746
7.4,0.05492632544482454
7.402,0.055390375556790244
7.404,0.06951649144041205
7.406000000000001,0.06470691648821475
7.408,-0.1566861568031428
7.41,-0.16040092923015148
7.412,-0.12628141102466617
7.414000000000001,-0.14552055125547148
7.416,-0.16180789486872751
7.418,-0.17208455543620788
7.42,-0.18422548562969118
7.422000000000001,-0.19752210517184177
7.424,-0.15380381413445401
7.426,-0.19785605712313759
7.428,-0.1867215868596005
7.43,-0.1617987775917163
7.432,-0.2018665503598131
7.434,-0.15676505604593474
7.436,-0.18265288465312507
7.438,-0.18054385431641007
7.44,-0.19590651450778715
7.442,-0.22419814386638465
7.444,-0.1804793109903026
7.446,-0.1925998172006262
7.448,-0.1960074906280273
7.45,-0.1833960762715019
7.452,-0.21082397686338858
7.454,-0.2347470913272017
7.456,-0.20134153792776938
7.458,-0.18316327512825512
7.46,-0.22071294023618615
7.462,-0.1866731516163495
7.464,-0.18073463038205712
7.466,-0.21750997679285983
7.468,-0.21839863250377226
7.47,-0.18549445922783644
7.472,-0.18989653694010547
7.474,-0.2174354061048604
7.476,-0.20029306898166563
7.478,-0.2008655538465874
7.48,-0.17307869895491534
7.482,-0.20353031303219066
7.484,-0.1663029828114182
7.486,-0.176553739465157
7.488,-0.19277059437704358
7.49,-0.2020494720576043
7.492,-0.175209033849066
7.494,-0.15215723040371598
7.496,-0.15911355894766646
7.498,-0.18548666220620774
7.5,-0.16202262053003638
7.502,-0.1387760595008164
7.5040000000000004,-0.14378712364739288
7.506,-0.14145504769803474
7.508,-0.159027407482288
7.51,-0.15366045831904387
7.5120000000000005,-0.17186734317874336
7.514,-0.13890791322257473
7.516,-0.13711765846599314
7.518,-0.13601675444497086
7.5200000000000005,-0.14331863813056162
7.522,-0.13466526963962347
7.524,-0.10840106871842553
7.526,-0.11098419080781066
7.5280000000000005,-0.10908595912558569
7.53,-0.11073950147026745
7.532,-0.12534194914218533
7.534,-0.0923972863113389
7.5360000000000005,-0.11172882729944605
7.538,-0.11376189703064961
7.54,-0.12595956970896033
7.542,-0.08571664044347704
7.5440000000000005,-0.10479951676107516
7.546,-0.11631255092594457
7.548,-0.11556484498409592
7.55,-0.0950208508307247
7.5520000000000005,-0.10583305242104013
7.554,-0.08479688145776063
7.556,-0.09108584114082804
7.558,-0.08367361233400514
7.5600000000000005,-0.09935158493830508
7.562,-0.11006594314860761
7.564,-0.09537401934209094
7.566,-0.03892361678406796
7.5680000000000005,-0.06013930594621385
7.57,-0.018444102248851436
7.572,-0.059706543130332315
7.574,-0.05759709060582107
7.5760000000000005,-0.10645923763414765
7.578,-0.1015776116335772
7.58,-0.08147592180773601
7.582,-0.09722726494413562
7.5840000000000005,-0.05779599874388689
7.586,-0.047794675243405506
7.588,-0.018163661895511208
7.59,-0.05816717223158191
7.5920000000000005,-0.06550390273793928
7.594,-0.05549994377759674
7.596,-0.02768714780307423
7.598,-0.10625782466711764
7.6000000000000005,-0.024639611357354596
7.602,-0.0726136840795253
7.604,-0.06391904297625645
7.606,-0.05697517097258618
7.6080000000000005,-0.0404070217936665
7.61,-0.05065799087523467
7.612,-0.04758172306955055
7.614,-0.08112436796336785
7.6160000000000005,-0.01899569624184889
7.618,-0.07343708344763195
7.62,-0.058991155216133004
7.622,-0.06355848344493893
7.6240000000000006,-0.03397656908892586
7.626,-0.06309669331616637
7.628,-0.07597215185904242
7.63,-0.06993226843158996
7.632000000000001,-0.08924359049319382
7.634,-0.015568330244830784
7.636,-0.05157206916907566
7.638,-0.0264755587482538
7.640000000000001,-0.046720024634466596
7.642,-0.036106053107633124
7.644,-0.08071639570457388
7.646,-0.0393581638254517
7.648000000000001,-0.06275119242994376
7.65,-0.09133699834977603
7.652,-0.05048679404993727
7.654,-0.03865397855395623
7.656000000000001,-0.054328884483369554
7.658,-0.03351495103693263
7.66,-0.04850095139966369
7.662,-0.022572069834892548
7.664000000000001,-0.05996244079405065
7.666,-0.03451495682277464
7.668,-0.08293859265668496
7.67,-0.051902707557564653
7.672000000000001,-0.03997214230876932
7.674,-0.046220034546655006
7.676,-0.02865419076941051
7.678,-0.0443490909499143
7.68,-0.025737400117562228
7.682,-0.05438442074893874
7.684,-0.04079036361706187
7.686,0.011524123267997143
7.688,-0.048229269258388135
7.69,-0.033589018765202476
7.692,-0.044429305387212924
7.694,-0.049074477580013556
7.696,-0.05100484813873787
7.698,-0.04572668827649839
7.7,-0.06096859018017187
7.702,-0.049449610586612014
7.704,-0.03596778210896725
7.706,-0.041083954189132486
7.708,-0.04654687600287927
7.71,-0.04071656342799015
7.712,-0.044973681031095294
7.714,-0.04242444042799941
7.716,-0.028433328934531082
7.718,-0.028485772872991
7.72,-0.03103958561286683
7.722,-0.07511172630769075
7.724,-0.033467702933753146
7.726,-0.0015596862852544462
7.728,-0.0012614087018667048
7.73,-0.047280604251291145
7.732,-0.013896441948180644
7.734,-0.028002996476273554
7.736,-0.049374608497661635
7.738,-0.04377976701064501
7.74,-0.02368342119760789
7.742,-0.02493192523800257
7.744,-0.06284278675267553
7.746,-0.08668060526673388
7.748,-0.018871676112983005
7.75,0.02203397391844176
7.752,-0.009186124174910423
7.7540000000000004,0.003285845941084095
7.756,-0.012462795594855934
7.758,-0.0002346445226182603
7.76,0.015803701137523465
7.7620000000000005,-0.010606511747033635
7.764,0.005477614188357169
7.766,0.005044180273904117
7.768,-0.005930745243694156
7.7700000000000005,0.005503736400924858
7.772,-0.0074099065050581905
7.774,0.030152050501022393
7.776,0.01473214545897844
7.7780000000000005,0.030645508836300926
7.78,0.022223482891918424
7.782,0.0437918255986473
7.784,0.008819607399284932
7.7860000000000005,0.02473666461576212
7.788,0.0469577599615433
7.79,0.03756464135944618
7.792,0.07773554269382492
7.7940000000000005,0.04401860163853689
7.796,0.03350086085698541
7.798,0.09275353673138653
7.8,0.05068338444389424
7.8020000000000005,0.035333646374446165
7.804,0.0677701394633605
7.806,0.07451771226922223
7.808,0.079368495258386
7.8100000000000005,0.0682799673972697
7.812,0.046811716108595115
7.814,0.04198759868592383
7.816,0.044743984449765586
7.8180000000000005,0.08915975394510445
7.82,0.05025572338661835
7.822,0.03633962445795014
7.824,0.08146815379588207
7.8260000000000005,0.0608773011684485
7.828,0.08146979375203238
7.83,0.07318321505663808
7.832,0.09180179271901956
7.8340000000000005,0.09804304469747664
7.836,0.02725836468012429
7.838,0.06845767408652834
7.84,0.03559535209075647
7.8420000000000005,0.04307892895652694
7.844,0.0757806010624714
7.846,0.040132768355152004
7.848,0.025677550903979746
7.8500000000000005,0.005896760167814194
7.852,0.055648940264468316
7.854,0.053424203073019524
7.856,-0.007464165297085781
7.8580000000000005,0.02958727856728398
7.86,0.04368298731553064
7.862,0.00799275476293819
7.864,-0.012100353028760481
7.8660000000000005,-0.0691616965898191
7.868,0.015611825087039781
7.87,-0.01721422101094082
7.872,-0.008607513379748345
7.8740000000000006,-0.01667002611767212
7.876,-0.04567873786263094
7.878,-0.07277075461997948
7.88,-0.07054573978014934
7.882000000000001,-0.08257662969983903
7.884,-0.037486670444023644
7.886,-0.05601076037745294
7.888,-0.09609439886172422
7.890000000000001,-0.12578479971385143
7.892,-0.06444289186157261
7.894,-0.08834947189020192
7.896,-0.09907096584773908
7.898000000000001,-0.08054098061378495
7.9,-0.05217172524825253
7.902,-0.0817561492114825
7.904,-0.09634011183503624
7.906000000000001,-0.08041606282829558
7.908,-0.0630820153538863
7.91,-0.05875057572604145
7.912,-0.05463337269872988
7.914000000000001,0.0072047882596190955
7.916,0.04219550669662322
7.918,0.06031177895286541
7.92,0.07448415781839739
7.922000000000001,0.118660019779741
7.924,0.17290578101679316
7.926,0.22703887579329673
7.928,0.24515653898377812
7.930000000000001,0.3449850886207919
7.932,0.36211093673885025
7.934,0.4348708923165202
7.936,0.4682909985612129
7.938,0.5315643350608052
7.94,0.6124377358188594
7.942,0.5989831398408735
7.944,0.705395231142971
7.946,0.7191832884534228
7.948,0.7605869472225766
7.95,0.833685035729805
7.952,0.8585103819633192
7.954,0.8790978596368585
7.956,0.9493874817955009
7.958,0.9304889357896743
7.96,0.9604654263432384
7.962,0.9334452505724717
7.964,0.9996449342620325
7.966,0.9642864134877401
7.968,0.9643687850872344
7.97,0.9557216267707145
7.972,0.9337857679720614
7.974,0.921278036734666
7.976,0.9118133078529789
7.978,0.8392991726447534
7.98,0.822264702518979
7.982,0.7890738274672306
7.984,0.7245779487152826
7.986,0.7040447477083167
7.988,0.6749573244955015
7.99,0.6240912425906535
7.992,0.5446375070742167
7.994,0.47840040226256114
7.996,0.4914309385071126
7.998,0.4328904636458116
8.0,0.38818937843811313
8.002,0.3094596188897216
8.004,0.28538173999735
8.006,0.2660767883773351
8.008000000000001,0.22304221347898004
8.01,0.22328498184674928
8.012,0.15145900136968288
8.014,0.11836220839525403
8.016,0.10276425585681712
8.018,0.03363702194139683
8.02,0.04699679653821561
8.022,0.02434905310726314
8.024000000000001,0.021589229472817852
8.026,0.012781187340851461
8.028,0.00403102844396043
8.03,-0.02563068698815836
8.032,-0.02405894803717801
8.034,-0.02349303668275527
8.036,-0.019261631151320797
8.038,-0.01929134588514063
8.040000000000001,-0.054703014240472844
8.042,-0.009562135140836009
8.044,-0.020556271012905296
8.046,-0.015917551498560546
8.048,-0.028995166240025648
8.05,-0.02870762760301744
8.052,-0.013889375556076307
8.054,-0.003708524271803869
8.056000000000001,-0.03295656230971296
8.058,-0.01230344440990238
8.06,0.010705712206412199
8.062,-0.01680180564324578
8.064,0.04346308053811936
8.066,0.1990282077026394
8.068,0.17828226723512136
8.07,0.2238698287296548
8.072000000000001,0.25010342473034924
8.074,0.19263401362070443
8.076,0.20942389450891397
8.078,0.1848299011992071
8.08,0.2058017442610955
8.082,0.23815569106448675
8.084,0.21178527331187133
8.086,0.19726294393411875
8.088000000000001,0.2474801181041979
8.09,0.19323137825044734
8.092,0.19428563049069028
8.094,0.2001806664014932
8.096,0.21844360005436958
8.098,0.2192120182763778
8.1,0.2543727972788659
8.102,0.23577247014310548
8.104000000000001,0.20959241211802493
8.106,0.23324295420059565
8.108,0.22469962527909806
8.11,0.2014080500521057
8.112,0.22272345990767062
8.114,0.2027855477674173
8.116,0.2454729832540877
8.118,0.21559191311785533
8.120000000000001,0.22105120969793388
8.122,0.216573173681847
8.124,0.20899440812282719
8.126,0.19539688586096599
8.128,0.18375601150745338
8.13,0.22774147167917552
8.132,0.21417479045096094
8.134,0.2183244127389258
8.136000000000001,0.23873435435610926
8.138,0.2282373894758806
8.14,0.22569652516117317
8.142,0.2147183715942652
8.144,0.20027319978545896
8.146,0.19975877446663093
8.148,0.19870523881451657
8.15,0.22174104749437837
8.152000000000001,0.20499045171748007
8.154,0.24442932396344424
8.156,0.2395965331674565
8.158,0.21400645280868133
8.16,0.21875034172875876
8.162,0.20992127633222193
8.164,0.20632350074076158
8.166,0.21501759244874813
8.168000000000001,0.2203058426362924
8.17,0.21186746314976607
8.172,0.23459207513002736
8.174,0.2178165917168031
8.176,0.225909242636086
8.178,0.22249611911978684
8.18,0.2430270503447552
8.182,0.1906516681943965
8.184000000000001,0.2103036146640575
8.186,0.21173587420876885
8.188,0.2076435955129897
8.19,0.23306466029146014
8.192,0.19625639206321835
8.194,0.2322169283344637
8.196,0.24401684823024455
8.198,0.20862551884358085
8.2,0.2011988938564339
8.202,0.22032060999411623
8.204,0.23168499096826273
8.206,0.2124324743437656
8.208,0.1555319007246435
8.21,0.209215727075149
8.212,0.2021655482890748
8.214,0.21814585434451852
8.216,0.18309314313676375
8.218,0.1997662310528085
8.22,0.22798789007779163
8.222,0.199473596288487
8.224,0.19744718472011163
8.226,0.20043536638949982
8.228,0.21463060134553108
