time,ecg
0.0,-0.0036013540894512864
0.002,0.014272610038945543
0.004,-0.003780883336221378
0.006,0.023995406329580252
0.008,0.0011134388642210589
0.01,-0.01891586950058323
0.012,-0.033873377423048516
0.014,0.00336474771469572
0.016,0.012082399862558137
0.018000000000000002,0.017252790058117237
0.02,-0.018610242167148686
0.022,0.01188248845454623
0.024,-0.017398772461082394
0.026000000000000002,0.018212806178040518
0.028,-0.04504584203464649
0.03,0.024172843166015905
0.032,0.0044851614475248484
0.034,0.019542413185342812
0.036000000000000004,0.03359738455645247
0.038,0.044727448653070656
0.04,0.04455688858168059
0.042,0.0343983591255371
0.044,0.01409538898826883
0.046,0.05663479106516377
0.048,0.024911266811759907
0.05,0.03655588778476422
0.052000000000000005,0.0016899246149067598
0.054,0.046108332405120966
0.056,0.05832222185972297
0.058,0.054590268616400164
0.06,0.07617399225905258
0.062,0.0448761460913481
0.064,0.08609619696700105
0.066,0.07029387076746238
0.068,0.06873481942042353
0.07,0.05242074376593788
0.07200000000000001,0.11113054803390725
0.074,0.12019104074717854
0.076,0.09628801793011921
0.078,0.12287580628500835
0.08,0.0748796521164651
0.082,0.12187687552008838
0.084,0.08735860084808218
0.08600000000000001,0.12382958463076356
0.088,0.11056862275989784
0.09,0.12072439633294857
0.092,0.1255462912009926
0.094,0.14450479163833127
0.096,0.08910098018757
0.098,0.09478293966358348
0.1,0.12487672579912261
0.10200000000000001,0.10740289322496022
0.10400000000000001,0.12532570926329625
0.106,0.11073441715077362
0.108,0.12113662738365749
0.11,0.12665397331872547
0.112,0.07220272472781789
0.114,0.10502349318545873
0.116,0.0917827615901228
0.11800000000000001,0.10909707692028965
0.12,0.11442937863104322
0.122,0.10182163283813281
0.124,0.046508357233916234
0.126,0.07576403034448215
0.128,0.12679901214287373
0.13,0.09680576297693105
0.132,0.09488024300918438
0.134,0.06226542706486807
0.136,0.09736808848471695
0.138,0.10892871217340067
0.14,0.07417214090792523
0.14200000000000002,0.053329885976213555
0.14400000000000002,0.035266218307684005
0.146,0.07108031591243286
0.148,0.0688398648222225
0.15,0.021028218308528857
0.152,0.018400550401779854
0.154,0.052421367843653546
0.156,0.021927898786352408
0.158,0.011706254155808019
0.16,0.018905021509462962
0.162,0.006289748794117278
0.164,0.034214454562661215
0.166,-0.004062570494046697
0.168,0.010219481524145965
0.17,0.013139788695967235
0.17200000000000001,-0.0053130124084793465
0.17400000000000002,-0.042798776159987645
0.176,-0.03674686777810391
0.178,-0.045220955696760275
0.18,-0.04984338812544669
0.182,-0.07309301988862649
0.184,-0.05688490867255486
0.186,-0.050309086958450974
0.188,-0.0574877164291632
0.19,-0.0609540977750188
0.192,0.025935330484296186
0.194,-0.053197994257175626
0.196,-0.020317818835239757
0.198,0.014971807824740196
0.2,0.031158954641906274
0.202,0.091370591227623
0.20400000000000001,0.09473333058051928
0.20600000000000002,0.11823726464215466
0.20800000000000002,0.17141628518482577
0.21,0.20367441686963583
0.212,0.27812516642548196
0.214,0.296192599264775
0.216,0.3634014873570849
0.218,0.3918255213585012
0.22,0.4997820117589206
0.222,0.48647143215017596
0.224,0.5965303520476308
0.226,0.5871098671670022
0.228,0.6894079420064185
0.23,0.7393056550962931
0.232,0.7528148699465899
0.234,0.8385699362770708
0.23600000000000002,0.8913620376805089
0.23800000000000002,0.9139314201729068
0.24,0.9430630038866953
0.242,0.9370772224370076
0.244,0.9898039188807326
0.246,0.9627093113697702
0.248,1.0479112667304489
0.25,1.0152741552967703
0.252,1.0189288971542259
0.254,1.004648967402281
0.256,1.0094797098267698
0.258,0.9574236654316278
0.26,0.9829167200844019
0.262,0.9358620816052361
0.264,0.8985660883175093
0.266,0.8713988326631326
0.268,0.8199394066406023
0.27,0.7805325115191112
0.272,0.6842243462000467
0.274,0.6984332015129214
0.276,0.6312524166474676
0.278,0.5940845609848692
0.28,0.5716372124572047
0.28200000000000003,0.44410975356092763
0.28400000000000003,0.4269241156764116
0.28600000000000003,0.4213427290267459
0.28800000000000003,0.3630521426577992
0.29,0.32395931797281363
0.292,0.27458051922052656
0.294,0.24988922099904365
0.296,0.20772335811189785
0.298,0.20480738521424885
0.3,0.15083144805610954
0.302,0.09102704370237208
0.304,0.11912844337965714
0.306,0.05170712929273269
0.308,0.07211146157278835
0.31,0.04396629663575084
0.312,0.014831787866204685
0.314,0.017618000939764986
0.316,0.04938891609616472
0.318,0.010191502804041788
0.32,-0.02348673241812757
0.322,0.013297249538937836
0.324,0.005913833771033782
0.326,-0.011226976543789301
0.328,0.06848473470151681
0.33,0.012335512706245281
0.332,-0.009680745597004235
0.334,0.016535687349437292
0.336,0.017409239759524384
0.338,0.049312990150734114
0.34,0.035937194603910566
0.342,0.021371995234241714
0.34400000000000003,0.05506924104020533
0.34600000000000003,0.03519254644650495
0.34800000000000003,0.07170615584122624
0.35000000000000003,0.04785959757835436
0.352,0.03887977339230187
0.354,0.026542945463851563
0.356,0.06871554898570682
0.358,0.0892066054096862
0.36,0.11380407001378472
0.362,0.0959311169451906
0.364,0.08653164253853479
0.366,0.10373918392916745
0.368,0.12159891091692868
0.37,0.1344963929531969
0.372,0.09935661428836283
0.374,0.12130141222557807
0.376,0.12313790667053995
0.378,0.14441279370819826
0.38,0.11563178727349449
0.382,0.09248407926172889
0.384,0.1442228430860254
0.386,0.1656881552473258
0.388,0.15526016251224872
0.39,0.1348270015776883
0.392,0.13717451974059156
0.394,0.174100625032969
0.396,0.1981254715187427
0.398,0.16779737088436705
0.4,0.20078013690430094
0.402,0.17613529687379653
0.404,0.16034896777472651
0.406,0.21933720864395445
0.40800000000000003,0.18880498245246816
0.41000000000000003,0.21641636601218406
0.41200000000000003,0.17187164320690407
0.41400000000000003,0.22476578677320494
0.41600000000000004,0.2176809621717179
0.418,0.18465901171481075
0.42,0.23014342736806376
0.422,0.24584999013191144
0.424,0.21533642409672843
0.426,0.23976263205684034
0.428,0.24155292140755377
0.43,0.21712827526749356
0.432,0.22818095909288155
0.434,0.23498465841466823
0.436,0.2572142985351555
0.438,0.2540048311563163
0.44,0.25588275483251216
0.442,0.2324899248115322
0.444,0.2667785609395755
0.446,0.2464482499308276
0.448,0.2575306166797256
0.45,0.2464031430102634
0.452,0.22039311592371066
0.454,0.23257410791783734
0.456,0.24851671624720445
0.458,0.25588765723595513
0.46,0.21856113250583678
0.462,0.23601212990350948
0.464,0.26371093372443166
0.466,0.24590326511930266
0.468,0.25713597629960916
0.47000000000000003,0.22896894682888055
0.47200000000000003,0.17716292088064722
0.47400000000000003,0.18723671499106975
0.47600000000000003,0.2404651873243415
0.47800000000000004,0.239341328023309
0.48,0.20979057678824553
0.482,0.24864946702079355
0.484,0.18394255443019403
0.486,0.20609444077069702
0.488,0.1877724828502843
0.49,0.17964515643003787
0.492,0.16985071946622876
0.494,0.18083524330094003
0.496,0.15957597670122295
0.498,0.16408654614997545
0.5,0.1489498989954097
0.502,0.18199195105814434
0.504,0.1337424280143296
0.506,0.13538186121561374
0.508,0.11596340830770918
0.51,0.1639562024771931
0.512,0.11153429786042188
0.514,0.0940408813504375
0.516,0.11405223720922114
0.518,0.1212417076525848
0.52,0.12016028538848253
0.522,0.06471824098571646
0.524,0.0691964617007878
0.526,0.06246000881304484
0.528,0.10647075014567609
0.53,-0.00043869312268628863
0.532,0.03136666812929999
0.534,0.014654726593547496
0.536,0.07768799134479337
0.538,0.002833962883631122
0.54,0.007582591348386097
0.542,-0.04664037488032023
0.544,0.0011898994696840498
0.546,-0.01990739002331106
0.548,-0.05271531440005943
0.55,-0.06264827228748841
0.552,-0.03831916848709617
0.554,-0.034542101588186214
0.556,-0.07471884521586858
0.558,-0.06649432697044994
0.56,-0.061296949742060645
0.562,-0.07733425100867844
0.5640000000000001,-0.06694480435413114
0.5660000000000001,-0.02895147696141695
0.5680000000000001,-0.04948327295510942
0.5700000000000001,-0.11592841975651386
0.5720000000000001,-0.06793514652323848
0.5740000000000001,-0.07492258866451933
0.5760000000000001,-0.0777690297087528
0.578,-0.07696351529124972
0.58,-0.11473898573794308
0.582,-0.07593720946456312
0.584,-0.15241499983825083
0.586,-0.09295097665215798
0.588,-0.09892924846590592
0.59,-0.11190846773222331
0.592,-0.12483266849914428
0.594,-0.08329654158162464
0.596,-0.12034871715015379
0.598,-0.09754415820262194
0.6,-0.09012301850472418
0.602,-0.09824556569532145
0.604,-0.08508918260000278
0.606,-0.08889486018442334
0.608,-0.08467578509290877
0.61,-0.11477702803580742
0.612,-0.09926968973964787
0.614,-0.06540637865458074
0.616,-0.14447658240264818
0.618,-0.08755009924239215
0.62,-0.1215931284649375
0.622,-0.06997916280332216
0.624,-0.08378446899833412
0.626,-0.07714782201489723
0.628,-0.06469849023509092
0.63,-0.07276576879132479
0.632,-0.09576763237784801
0.634,-0.046806396151408164
0.636,-0.11878428011537444
0.638,-0.09665132791329406
0.64,-0.07026840373686653
0.642,-0.04933206995225209
0.644,-0.09589019201724688
0.646,-0.06990543624219066
0.648,-0.08547143408864122
0.65,-0.08260876690495951
0.652,-0.05626998613259216
0.654,-0.02524795244894558
0.656,-0.07744616877839493
0.658,-0.046704256361817124
0.66,-0.03328128775360894
0.662,-0.02958250713596494
0.664,-0.013161616139762036
0.666,-0.028418234084462535
0.668,-0.048495232249739395
0.67,-0.005158204220442109
0.672,-0.04772074444821385
0.674,-0.05867337494288451
0.676,-0.050423921484090674
0.678,-0.0323343505355015
0.68,-0.04594908472717067
0.682,-0.01829749380923657
0.684,-0.010496030401523457
0.686,-0.004380528500679388
0.6880000000000001,-0.011603296716834542
0.6900000000000001,0.02757172229410309
0.6920000000000001,0.004372509359893764
0.6940000000000001,0.018186637002622526
0.6960000000000001,-0.030896523952118657
0.6980000000000001,0.021391884955904494
0.7000000000000001,0.04748538967622247
0.7020000000000001,0.00313765284474676
0.704,-0.01672554101888908
0.706,-0.00302852146628255
0.708,0.016184676222861644
0.71,0.027909399258913024
0.712,0.03307894808414752
0.714,0.02146081462606397
0.716,0.014660344823320157
0.718,0.03623504150570507
0.72,-0.006995375489056498
0.722,0.027809419409258844
0.724,0.019367662730269734
0.726,0.013953631839788433
0.728,-0.004041102803165778
0.73,0.02494959805893185
0.732,0.044578420940554635
0.734,0.05069449082015303
0.736,0.0008709973855706883
0.738,0.02762044600876591
0.74,0.04242327834600733
0.742,0.021812119974011578
0.744,0.03325330676808481
0.746,0.003922496101188287
0.748,0.008520545511671536
0.75,0.032905773046749597
0.752,0.025029374965133293
0.754,0.006175720050956095
0.756,0.047839671621432774
0.758,0.0209174935758099
0.76,0.05620734156050818
0.762,0.02440077614242286
0.764,0.015659866737266548
0.766,0.029763948930638884
0.768,0.042590495047254484
0.77,0.028255164530057695
0.772,0.032729936704712706
0.774,0.04592591360740466
0.776,0.02724835215828179
0.778,0.062947052903389
0.78,0.02735872303082939
0.782,0.04747814656279585
0.784,0.042658168789183264
0.786,-0.003294862302292799
0.788,0.02611143029216204
0.79,-0.01621117865207438
0.792,0.06227380149871074
0.794,0.043717519104066405
0.796,0.04302095070944703
0.798,0.024027829758503327
0.8,0.060477624654251445
0.802,0.020502148942014062
0.804,0.021425571325926047
0.806,0.028903493897240888
0.808,0.026044196403991145
0.81,0.03752477526506066
0.812,0.02695851828384694
0.8140000000000001,0.04895512051232933
0.8160000000000001,0.032006864677733525
0.8180000000000001,0.05723880233918155
0.8200000000000001,0.006486312713357269
0.8220000000000001,0.012168504121643534
0.8240000000000001,0.049148617049687725
0.8260000000000001,0.028506413731521008
0.8280000000000001,-0.0002916970505733817
0.8300000000000001,0.015806948121153932
0.8320000000000001,0.0044879771244222405
0.834,0.04118625231464243
0.836,0.051697673460515986
0.838,-0.03563793539107147
0.84,0.029593951682124576
0.842,0.02940598665178645
0.844,0.006909639632815095
0.846,-0.031244422660107123
0.848,0.04600040845323225
0.85,0.013016888835390527
0.852,0.03354238671055117
0.854,0.009641557592880316
0.856,0.03918087154837667
0.858,0.008836324615139916
0.86,0.012031649781836944
0.862,0.05206407315922003
0.864,0.03454363317809303
0.866,0.02631338595331991
0.868,0.053563195284057195
0.87,0.041794233404723914
0.872,0.020686275843696606
0.874,0.025640207567516726
0.876,-0.0014676873615575353
0.878,0.05909217089896433
0.88,0.038354191590757494
0.882,0.057102141029324135
0.884,0.04965059646361063
0.886,0.02231389653814216
0.888,0.010750936146834478
0.89,0.024761645816947737
0.892,0.05337169410261225
0.894,0.057109032430097774
0.896,0.06697206498739969
0.898,0.025216108487407286
0.9,0.05055488227010767
0.902,0.04537807786950594
0.904,0.0830396025109604
0.906,0.021161041092920586
0.908,0.045923648788915056
0.91,0.06998978651902549
0.912,0.04858692749128993
0.914,0.07779487067235621
0.916,0.0490044857877353
0.918,0.10390576888439942
0.92,0.03730734641693008
0.922,0.04723488213169665
0.924,0.06026748936434084
0.926,0.10173255775970913
0.928,0.07781209547598913
0.93,0.10014101633850542
0.932,0.11311633703154313
0.934,0.08014550713437268
0.936,0.10014210238417462
0.9380000000000001,0.07999916608526188
0.9400000000000001,0.1325663033223297
0.9420000000000001,0.11838055627815688
0.9440000000000001,0.10040682759413098
0.9460000000000001,0.09715122638207352
0.9480000000000001,0.06531950681187315
0.9500000000000001,0.11128554075079647
0.9520000000000001,0.12391427326938419
0.9540000000000001,0.08712407681460997
0.9560000000000001,0.07345636849787374
0.9580000000000001,0.09524822198206885
0.96,0.09970417947778015
0.962,0.09410333806322961
0.964,0.08755382692889584
0.966,0.056246408468791476
0.968,0.13426944357120224
0.97,0.10630906389113036
0.972,0.11649334929159631
0.974,0.07805317958969638
0.976,0.05519719921404591
0.978,0.12827671919036873
0.98,0.059170764096145884
0.982,0.06218372700753024
0.984,0.10365933181777295
0.986,0.051547417007815136
0.988,0.10698408882563781
0.99,0.06379647902798578
0.992,0.03829794979248576
0.994,0.06105110257013987
0.996,0.05589437169433951
0.998,0.04886269025248915
1.0,0.038743052806193924
1.002,0.05818477903699389
1.004,0.018678785732861927
1.006,0.03241123404439414
1.008,0.021548342625100077
1.01,-0.0037407486974247346
1.012,0.0015714304429069771
1.014,0.04245329064598218
1.016,0.037462603904526735
1.018,-0.015872925571054308
1.02,-0.002156229729202692
1.022,-0.027840133949263376
1.024,-0.021405828452393017
1.026,-0.0568052388881826
1.028,-0.046623648275157824
1.03,-0.013235734338351554
1.032,-0.07862222629527513
1.034,-0.08412838939716094
1.036,-0.09122954703620499
1.038,-0.0717388335105943
1.04,-0.03363562972230353
1.042,-0.08448283735880677
1.044,-0.0851330163892108
1.046,-0.04484256253337328
1.048,-0.06270595113491861
1.05,-0.0657937101461286
1.052,-0.03655343206671647
1.054,-0.050623682277540556
1.056,-0.0264690004838216
1.058,0.016666022985466593
1.06,0.05159833048966453
1.062,0.07409474519598605
1.064,0.09746049760132275
1.066,0.14593046243555693
1.068,0.2164199707656155
1.07,0.23506854950863834
1.072,0.27274043621277555
1.074,0.3465540703203853
1.076,0.42623858218179167
1.078,0.4926099684439815
1.08,0.5365734295430238
1.082,0.5676599508302343
1.084,0.6197170053957635
1.086,0.6347083209134734
1.088,0.7068058927639699
1.09,0.7459878351795073
1.092,0.8058911532149113
1.094,0.8062339400789958
1.096,0.8502740116836776
1.098,0.9182162904164825
1.1,0.9465832731186842
1.102,0.9066359141924565
1.104,0.9485287257888688
1.106,0.9451925282321729
1.108,0.9651357585293463
1.11,0.9808951110165343
1.112,0.9390258101911864
1.114,0.9189878569201944
1.116,0.9087415837023317
1.118,0.8952890853395689
1.12,0.9017452695679375
1.122,0.8189052170277075
1.124,0.7880005621929719
1.1260000000000001,0.7750002732021077
1.1280000000000001,0.6856639492102752
1.1300000000000001,0.6186589814298463
1.1320000000000001,0.6078898205904304
1.1340000000000001,0.562040559952403
1.1360000000000001,0.44085134617077054
1.1380000000000001,0.49709257624581976
1.1400000000000001,0.4571051953822667
1.1420000000000001,0.4048243760843431
1.1440000000000001,0.31978498723121185
1.1460000000000001,0.294313379377396
1.1480000000000001,0.22300393488877066
1.1500000000000001,0.19479351884546742
1.1520000000000001,0.15748835614332202
1.154,0.12321618937905562
1.156,0.07994697912725882
1.158,0.06436650491365278
1.16,0.06191234210113601
1.162,0.04495473722480017
1.164,0.009475429218685778
1.166,-0.0187114615891468
1.168,-0.006602245594184332
1.17,-0.04036809007660525
1.172,-0.07810574451801734
1.174,0.003945913700209658
1.176,-0.014290128128002611
1.178,-0.06075261521105707
1.18,-0.06978467590775529
1.182,-0.056670288614802194
1.184,-0.06136482541634783
1.186,-0.044612193380675444
1.188,-0.05784103662288735
1.19,-0.018567659336578977
1.192,-0.07222548132873703
1.194,-0.031538084267571084
1.196,-0.03129069482020115
1.198,-0.029586146619712435
1.2,-0.004440332903490957
1.202,-0.01899850612347577
1.204,-0.03306880367945754
1.206,-0.026857472754938876
1.208,-0.010388914138330992
1.21,-0.03549203411593049
1.212,-0.046616298042597745
1.214,-0.024409013397832035
1.216,-0.00783826418497946
1.218,0.01621147404824639
1.22,0.02574661715666524
1.222,0.01817746377947575
1.224,0.008539456997697578
1.226,0.013524855485911293
1.228,0.021416296681950636
1.23,0.028083298344006753
1.232,0.03230636264885042
1.234,0.04290473515684084
1.236,0.015913390109448422
1.238,0.052608573570417705
1.24,0.06185235918717859
1.242,0.06826393618558946
1.244,0.03603280712869336
1.246,0.09664681523811486
1.248,0.08513627432863728
1.25,0.07277778571426066
1.252,0.09506445307059455
1.254,0.1182608895074241
1.256,0.13224767584020197
1.258,0.09320811854813452
1.26,0.08867295406170488
1.262,0.10084620602460437
1.264,0.13594328987525245
1.266,0.13140523971910736
1.268,0.14780075807372323
1.27,0.1236522408574335
1.272,0.12448281127825153
1.274,0.09439551491606935
1.276,0.12670446301891947
1.278,0.15266582778487184
1.28,0.15296482920829352
1.282,0.15740146032054342
1.284,0.15014586337200433
1.286,0.13707965077305298
1.288,0.15045221988107296
1.29,0.15759372303548996
1.292,0.1524339384098388
1.294,0.12703857576847608
1.296,0.17679671634076372
1.298,0.1806640901289206
1.3,0.15741313283723063
1.302,0.17488127316050608
1.304,0.14512588887033712
1.306,0.1500772155129343
1.308,0.16051854899023654
1.31,0.1544041861277807
1.312,0.14932578690413822
1.314,0.16252610972913215
1.316,0.14553884866451555
1.318,0.15070845552562867
1.32,0.161395095539973
1.322,0.16073796772429874
1.324,0.18347089160999996
1.326,0.12082450695385462
1.328,0.1563814072028345
1.33,0.14303751545734306
1.332,0.1588700496520241
1.334,0.13533669589441152
1.336,0.12212860538936443
1.338,0.11691571191176618
1.34,0.11472033396158622
1.342,0.1130736085369524
1.344,0.13366320814197424
1.346,0.10575259262601176
1.348,0.09194632024576552
1.35,0.09823241171142144
1.352,0.09758239280184636
1.354,0.06572719648482343
1.356,0.03562913605540487
1.358,0.05179700377935992
1.36,0.03026391397616364
1.362,0.0350674227370442
1.364,0.0411665509321911
1.366,0.019147737190246303
1.368,0.02568842177440947
1.37,0.037269378323314506
1.372,0.01780523533493506
1.374,0.01799821806565166
1.3760000000000001,-0.015107693705816098
1.3780000000000001,-0.0005893608945002626
1.3800000000000001,-0.005288063712149595
1.3820000000000001,0.006311545172194927
1.3840000000000001,-0.04618145019663235
1.3860000000000001,-0.04377432737914284
1.3880000000000001,-0.059991737946096524
1.3900000000000001,-0.05199333712519694
1.3920000000000001,-0.048648426291014825
1.3940000000000001,-0.09797292231066083
1.3960000000000001,-0.09012486753283422
1.3980000000000001,-0.11308622871874721
1.4000000000000001,-0.13026711323078882
1.4020000000000001,-0.12249585867971548
1.4040000000000001,-0.1728963400416274
1.4060000000000001,-0.13941094101519205
1.408,-0.17035013693231887
1.41,-0.14912714008782818
1.412,-0.10491203494385606
1.414,-0.11064175489130128
1.416,-0.16247109295055426
1.418,-0.181387356926884
1.42,-0.14028060826573452
1.422,-0.1963507508519884
1.424,-0.1913191575639766
1.426,-0.1820991804685636
1.428,-0.16885320977801935
1.43,-0.1605684629585883
1.432,-0.1711867691630854
1.434,-0.18920332157046382
1.436,-0.1885545236260559
1.438,-0.16849824862923146
1.44,-0.1728511636077279
1.442,-0.1967596961811996
1.444,-0.21412235070375799
1.446,-0.23018114792517952
1.448,-0.2190488177307386
1.45,-0.20239371359313207
1.452,-0.19521002929940376
1.454,-0.17972567325702368
1.456,-0.19484413017408997
1.458,-0.21418202918660725
1.46,-0.19313992898027477
1.462,-0.22476184358166262
1.464,-0.23676217382102366
1.466,-0.14582065617621814
1.468,-0.20490576627528795
1.47,-0.20915840864602891
1.472,-0.20205812990486985
1.474,-0.1859126312834385
1.476,-0.15886466394745505
1.478,-0.16908224766033772
1.48,-0.16705962967692936
1.482,-0.16458744483404497
1.484,-0.1517952520103494
1.486,-0.1450791445927812
1.488,-0.20695557016106608
1.49,-0.18436404815059762
1.492,-0.1436180398756008
1.494,-0.1998422368061034
1.496,-0.18110517947852334
1.498,-0.14593873993756556
1.5,-0.1455734814741197
1.502,-0.18843734528704192
1.504,-0.1556512870565933
1.506,-0.13244239277864933
1.508,-0.15474310996972426
1.51,-0.14869509143860377
1.512,-0.14725189038981065
1.514,-0.1432546392879498
1.516,-0.14754266791203918
1.518,-0.13039969314213407
1.52,-0.14904483286621728
1.522,-0.14377129758540008
1.524,-0.13944837074060365
1.526,-0.1383387356592528
1.528,-0.1533520699553074
1.53,-0.1317224913347088
1.532,-0.07304425846581061
1.534,-0.09096364621090927
1.536,-0.11649742024349777
1.538,-0.10345569380490463
1.54,-0.13274696160962784
1.542,-0.09207004723389041
1.544,-0.12676936470469868
1.546,-0.11872161928707099
1.548,-0.09372767526979993
1.55,-0.11172504650909162
1.552,-0.1329234813379283
1.554,-0.054114140252612165
1.556,-0.10192171683740532
1.558,-0.06595580839580183
1.56,-0.03645551623851464
1.562,-0.08425963671240162
1.564,-0.06837003404637829
1.566,-0.0969062176720004
1.568,-0.05858263594346669
1.57,-0.05206211027481614
1.572,-0.04465248130375041
1.574,-0.07359161350397116
1.576,-0.0727454640142354
1.578,-0.0502937975592839
1.58,-0.06589454444355546
1.582,-0.02347868967941794
1.584,-0.08588200342803005
1.586,-0.08518725064331438
1.588,-0.0697764015475749
1.59,-0.0709349089076971
1.592,-0.0180938610927384
1.594,-0.05366713640343947
1.596,-0.08012673164941121
1.598,-0.043836613345798546
1.6,-0.04384079925281819
1.602,-0.0032454406536633652
1.604,-0.04637684702568759
1.606,-0.045044591557691735
1.608,-0.0109720603347404
1.61,-0.07388466858864547
1.612,-0.04531714568289627
1.614,-0.04691352802765951
1.616,-0.018779910939274665
1.618,-0.0622586210554062
1.62,-0.07154443196492621
1.622,-0.047635981579314673
1.624,-0.06566922291065169
1.6260000000000001,0.0016502145055221765
1.6280000000000001,-0.05027230840971502
1.6300000000000001,-0.022827658287196125
1.6320000000000001,-0.0417419095275892
1.6340000000000001,-0.056723661020403944
1.6360000000000001,-0.044785014268181246
1.6380000000000001,-0.06457893747382472
1.6400000000000001,-0.04243000709455258
1.6420000000000001,-0.04904862553133986
1.6440000000000001,-0.036454976306920614
1.6460000000000001,-0.05175047983352191
1.6480000000000001,-0.04599861243069333
1.6500000000000001,-0.032457882645207894
1.6520000000000001,-0.018424364530294803
1.6540000000000001,-0.03968559003459581
1.6560000000000001,-0.04687055779995553
1.6580000000000001,-0.049224460584213085
1.6600000000000001,-0.04850855068856235
1.6620000000000001,-0.06291223360301972
1.6640000000000001,-0.04997618029764911
1.666,-0.05336186686353345
1.668,-0.008929834586412715
1.67,-0.06318447897308353
1.672,-0.06390680760210375
1.674,-0.03481783579795198
1.676,-0.03415368797098686
1.678,-0.06926012045851611
1.68,-0.048587445371659176
1.682,-0.05024672272905262
1.684,-0.022993992847368812
1.686,-0.009221772860355826
1.688,-0.05072114801264102
1.69,-0.007344579962000383
1.692,-0.05775641146206202
1.694,-0.035369799731343084
1.696,-0.061066432532580886
1.698,-0.03122446943776083
1.7,-0.008188047186438698
1.702,-0.039230023559722854
1.704,-0.0702255884341946
1.706,-0.06726890289131746
1.708,-0.03340152146664066
1.71,-0.050114027564779465
1.712,-0.022032577555666802
1.714,-0.0228471711728662
1.716,-0.04480521219992009
1.718,-0.0783999578600589
1.72,-0.04270178931282417
1.722,-0.04921980283580011
1.724,-0.021509884065879722
1.726,-0.042629930259427476
1.728,-0.017994056782535635
1.73,-0.04361475376890163
1.732,0.02447642104820969
1.734,-0.033750000191553595
1.736,-0.029198288480026487
1.738,0.010478792489689784
1.74,-0.02833023530005644
1.742,-0.033143271275473896
1.744,-0.043340583785085936
1.746,0.012560668299905596
1.748,-0.0015319396598935005
1.75,-0.06298680974786089
1.752,-0.021410466041009064
1.754,-0.01491270343103437
1.756,-0.03246186865429518
1.758,-0.00576363768254071
1.76,0.0073389549785539965
1.762,0.005089160368693772
1.764,0.03277553690464091
1.766,0.01782449071784651
1.768,0.017509259104593118
1.77,0.02345055429181688
1.772,0.029257923026769345
1.774,0.02855407657606797
1.776,-0.003998125881398945
1.778,-1.2665085938737275e-05
1.78,0.019747066584883496
1.782,0.05694319867551206
1.784,0.03187497423833053
1.786,0.05206369560795966
1.788,0.08179405488898135
1.79,0.06151328449516032
1.792,0.05177095478904238
1.794,0.04311009804094647
1.796,0.07102912928814868
1.798,0.0360837944337701
1.8,0.058421472740537696
1.802,0.07754793751058214
1.804,0.03284411128501406
1.806,0.07406780738820438
1.808,0.07055534519468472
1.81,0.05310200695758792
1.812,0.042208100577017134
1.814,0.05135005278997504
1.816,0.06762626998740093
1.818,0.05673629181675642
1.82,0.05605818482873137
1.822,0.0568717670473681
1.824,0.047151212236444404
1.826,0.0639411244074318
1.828,0.05925134899273756
1.83,0.07344961813067591
1.832,0.0419566762265995
1.834,0.05054716013024728
1.836,0.02602260893814684
1.838,0.0626198060788357
1.84,0.04887246354886808
1.842,0.0814854270941604
1.844,0.04266945695906038
1.846,0.019698492415712004
1.848,0.0376698455463249
1.85,0.014451438223998095
1.852,0.024165743643918117
1.854,0.015327829490252541
1.856,0.024776656372557573
1.858,0.014080617524375807
1.86,0.025107664452743032
1.862,-0.009376910169587561
1.864,-0.010532533268688943
1.866,0.032474837403109386
1.868,-0.018362739589964105
1.87,0.004500994235994591
1.872,-0.023765900916861864
1.874,-0.01932196604943189
1.8760000000000001,-0.029809849725215568
1.8780000000000001,-0.04674447822019821
1.8800000000000001,-0.027179045923051204
1.8820000000000001,-0.0451375232140296
1.8840000000000001,-0.014012044959570615
1.8860000000000001,-0.06191156983895114
1.8880000000000001,-0.05650709341448973
1.8900000000000001,-0.10172444531335928
1.8920000000000001,-0.0460622743415863
1.8940000000000001,-0.11497996162214334
1.8960000000000001,-0.10208640601369479
1.8980000000000001,-0.10017828513281515
1.9000000000000001,-0.11269770893441317
1.9020000000000001,-0.07287688248805278
1.9040000000000001,-0.06471409110160614
1.9060000000000001,-0.050941620768125744
1.9080000000000001,-0.08555790621724034
1.9100000000000001,-0.058983568881705646
1.9120000000000001,-0.04114283390482053
1.9140000000000001,0.003960061892174569
1.9160000000000001,0.014278281241384187
1.9180000000000001,0.04192349322467701
1.92,0.10195776150824935
1.922,0.11060794373184435
1.924,0.1687939713730031
1.926,0.20126788188357309
1.928,0.29808080652177793
1.93,0.33350526899373173
1.932,0.36652428766048356
1.934,0.4418739300116201
1.936,0.4779823343732208
1.938,0.5601691814128289
1.94,0.5675131833898264
1.942,0.6348582714414022
1.944,0.715198865094753
1.946,0.7329425591377574
1.948,0.8132776951243559
1.95,0.8502888196254834
1.952,0.8724624671928181
1.954,0.9316913085295231
1.956,0.9458479836060517
1.958,0.9428738573895139
1.96,0.9819603595839712
1.962,0.9884554412601986
1.964,1.006691562812244
1.966,0.994309465086485
1.968,0.97352087709561
1.97,0.9399009133024385
1.972,0.9581825046152684
1.974,0.8943264415169007
1.976,0.9174757709368659
1.978,0.8511790318256676
1.98,0.8165494485762669
1.982,0.7510574563006145
1.984,0.7622417542777168
1.986,0.7006716722279361
1.988,0.6574280451623953
1.99,0.6383638614845435
1.992,0.5184905149464714
1.994,0.4886832576016814
1.996,0.4803235703789744
1.998,0.4236763061110846
2.0,0.3680351692227658
2.0020000000000002,0.33689907511829986
2.004,0.32072374614955124
2.0060000000000002,0.23896914197167038
2.008,0.2437903580486635
2.0100000000000002,0.17241747691319698
2.012,0.14376811461081207
2.0140000000000002,0.1441172995317684
2.016,0.0871277935913331
2.0180000000000002,0.03935894168251336
2.02,0.07967959040654887
2.0220000000000002,0.06783082721318981
2.024,0.028458700363353177
2.0260000000000002,0.02423900962129166
2.028,-0.009378504811505671
2.0300000000000002,0.015768393613186125
2.032,-0.02395656022083393
2.0340000000000003,-0.02119709522067134
2.036,-0.02275631277057778
2.0380000000000003,-0.01160872682714818
2.04,0.006003633603085545
2.0420000000000003,0.00038800307713130963
2.044,-0.010644449928814475
2.0460000000000003,-0.02447738025733305
2.048,0.008887903538997637
2.05,-0.008295083508203797
2.052,0.01365042090960987
2.054,-0.023712856716425722
2.056,-0.02532432514121357
2.058,-0.010889773094719304
2.06,-0.03866110883228281
2.062,0.020562559785301887
2.064,-0.000403764448386767
2.066,0.009590770657556143
2.068,0.0022385224294502494
2.07,0.06068008148683081
2.072,0.017752561215385244
2.074,-0.01943095396547379
2.076,0.055433117578655475
2.078,0.07131939175890892
2.08,0.10061179117015434
2.082,0.061067555808871445
2.084,0.10547397315010923
2.086,0.08419941892132562
2.088,0.06107735160392123
2.09,0.043305945636511016
2.092,0.08039580360538134
2.094,0.11891201422707072
2.096,0.126248081754765
2.098,0.10666477671593468
2.1,0.15618542130380791
2.102,0.12225400514775797
2.104,0.1203854829863222
2.106,0.15637262582029982
2.108,0.1288104718234949
2.11,0.15297777893856004
2.112,0.15324169071464686
2.114,0.20944485769225338
2.116,0.20199704031845925
2.118,0.15196375078404595
2.12,0.17749927994936632
2.122,0.14622128270809892
2.124,0.17038619905876842
2.126,0.20484118002360577
2.128,0.19496362363078007
2.13,0.20062477923277644
2.132,0.16869928156380803
2.134,0.17998692257055435
2.136,0.210137720861581
2.138,0.20825693988005006
2.14,0.20318614857114817
2.142,0.18500900887294142
2.144,0.2045511005609244
2.146,0.20495824211777303
2.148,0.21974216857745849
2.15,0.20219944391305084
2.152,0.1921509233016052
2.154,0.22286905556539602
2.156,0.2636656707153215
2.158,0.20364692191989978
2.16,0.2376093038507755
2.162,0.21480475172025312
2.164,0.23151136101646463
2.166,0.24192710019677066
2.168,0.17764691489144593
2.17,0.20963070234984033
2.172,0.24682631274131955
2.174,0.21917859580826318
2.176,0.21793417540199392
2.178,0.2042795364469559
2.18,0.18999231778241754
2.182,0.2236666599826077
2.184,0.22724565036863964
2.186,0.16909459607604008
2.188,0.1765321610011828
2.19,0.20525542961120397
2.192,0.21366250430936012
2.194,0.19632595132940323
2.196,0.19645519427648872
2.198,0.1788588717584237
2.2,0.15273996065163595
2.202,0.1611196968458642
2.204,0.14484974680990417
2.206,0.12390004068356919
2.208,0.15619960832981014
2.21,0.15242164847563783
2.212,0.16708832210176577
2.214,0.15209085717604567
2.216,0.15197046381940985
2.218,0.15312654787587962
2.22,0.08087829186581455
2.222,0.10168503200198645
2.224,0.11106051531109606
2.226,0.09681597485547369
2.228,0.10879307350147818
2.23,0.07408985554121361
2.232,0.04426268258929187
2.234,0.09634297621935534
2.236,0.09193865646314878
2.238,0.06675410005558399
2.24,0.038696661592934806
2.242,0.03745470013784505
2.244,0.002972734464303472
2.246,0.017005942113433432
2.248,0.020543644338763226
2.25,0.01909378287694751
2.2520000000000002,0.019557705042019514
2.254,0.00246431603083154
2.2560000000000002,-0.055420454358387564
2.258,-0.020822026748720482
2.2600000000000002,-0.04452223246650952
2.262,-0.08424790253539562
2.2640000000000002,-0.05805442181398983
2.266,-0.04618462229987262
2.2680000000000002,-0.04714314461566696
2.27,-0.08806872033593524
2.2720000000000002,-0.04687911664672291
2.274,-0.09146867677517719
2.2760000000000002,-0.0685731116876231
2.278,-0.10971556039320954
2.2800000000000002,-0.08718030997414972
2.282,-0.11001475756626752
2.2840000000000003,-0.08871246358912503
2.286,-0.11503132243120809
2.2880000000000003,-0.09175415122743308
2.29,-0.11394295658707894
2.2920000000000003,-0.11776072596194938
2.294,-0.07856517935381373
2.2960000000000003,-0.10596101087449356
2.298,-0.10237143229673505
2.3000000000000003,-0.1197427820042111
2.302,-0.06938558221050026
2.3040000000000003,-0.10516295325083068
2.306,-0.09039159780351745
2.308,-0.12222257695136474
2.31,-0.09553234571804119
2.312,-0.09073830896872916
2.314,-0.07200342774070316
2.316,-0.12412096270728475
2.318,-0.08099346130954327
2.32,-0.10523584106310192
2.322,-0.09251854020862389
2.324,-0.10967073346609195
2.326,-0.09783590288391278
2.328,-0.07179234860235338
2.33,-0.11168895781632976
2.332,-0.06515529831971699
2.334,-0.10315740707078211
2.336,-0.09527974809356352
2.338,-0.11231074815435402
2.34,-0.12893933338495323
2.342,-0.07355070722985334
2.344,-0.08970564835342139
2.346,-0.07356972397839204
2.348,-0.08831670028850426
2.35,-0.07862299714570833
2.352,-0.09172463258350833
2.354,-0.05015930152489877
2.356,-0.034376284609619806
2.358,-0.06387506524326171
2.36,-0.09456751704738525
2.362,-0.056522327684129875
2.364,-0.045676393785395855
2.366,-0.06827618099016858
2.368,-0.045368735540592064
2.37,-0.06439278620350114
2.372,-0.04211729319114244
2.374,-0.03296912205489962
2.376,0.035117433422584374
2.378,0.017437274577812245
2.38,-0.05987336038770303
2.382,-0.008620848764479494
2.384,-0.0022967160479265836
2.386,-0.05268039422064914
2.388,0.004749179907232143
2.39,-0.029587539318694817
2.392,-0.031203627186599525
2.394,0.017928676820196374
2.396,0.02982422351169363
2.398,0.00921076390608614
2.4,-0.006627720655327088
2.402,-0.019626708048667417
2.404,0.014389279197980422
2.406,-0.0051019960447570845
2.408,-0.01214245733927401
2.41,-0.010929529746984107
2.412,0.019241302496637885
2.414,-0.0019415899290699881
2.416,0.020808961440836583
2.418,0.013241257792498597
2.42,0.02307458511552433
2.422,0.014108871904124139
2.424,0.0361733460127157
2.426,0.032618595508351944
2.428,0.029413185233433413
2.43,0.029720031121644685
2.432,0.033913036340696284
2.434,0.015165725442507123
2.436,0.0445474401508211
2.438,-0.0024390054352414845
2.44,0.006649932766240723
2.442,0.025492962045417764
2.444,0.015203983642666882
2.446,0.037936356011203355
2.448,0.050579367906968854
2.45,0.06864036262011237
2.452,0.03817882878968095
2.454,0.05476340443667345
2.456,0.029602284789403972
2.458,0.04547809021669906
2.46,0.03344139538053417
2.462,0.041181845857492544
2.464,0.04010246851808049
2.466,0.02422644702433526
2.468,0.033669932120694294
2.47,0.06226423887953131
2.472,0.05097236837343681
2.474,0.02062239377911128
2.476,0.03521465828796355
2.478,0.05571422219909674
2.48,0.028712588949337255
2.482,0.05509755404465908
2.484,0.08007504900810104
2.486,0.046023420211589776
2.488,0.04884848980721267
2.49,0.03552259479169862
2.492,0.0012200927000023602
2.494,0.01832601365439256
2.496,0.068301400151095
2.498,0.062341804684155594
2.5,0.03789192149325506
2.5020000000000002,0.044752989412976674
2.504,0.05846977996870333
2.5060000000000002,0.05357522013551698
2.508,0.043889292379531035
2.5100000000000002,0.07470761063770257
2.512,0.05002395769596305
2.5140000000000002,0.052481148294460725
2.516,0.08144056659840258
2.5180000000000002,0.04041029317197008
2.52,0.030494191485274786
2.5220000000000002,0.05305169786806978
2.524,0.04767288998482403
2.5260000000000002,0.04857150541163925
2.528,0.024575122041643048
2.5300000000000002,0.01557726990395424
2.532,0.06667329509536389
2.5340000000000003,0.04680791392074786
2.536,0.0490964359774928
2.5380000000000003,0.043537419419378075
2.54,0.03553085133341816
2.5420000000000003,0.053617763507030625
2.544,0.04266012895319212
2.5460000000000003,0.059190509246385054
2.548,0.04072916230115318
2.5500000000000003,0.027560295229964164
2.552,0.034430970561253174
2.5540000000000003,0.07006701988281507
2.556,0.06350589656470973
2.5580000000000003,0.058011354037759706
2.56,0.05895413204653727
2.562,0.05648710337846355
2.564,0.08741070696481394
2.566,0.026856260989513207
2.568,0.03165668258437405
2.57,0.07826354039453826
2.572,0.034132108515137795
2.574,0.08547464562914639
2.576,0.03983571626471786
2.578,0.042711340172385176
2.58,0.05359183613789143
2.582,0.08460051712306851
2.584,0.04460951943490717
2.586,0.06200467047686498
2.588,0.032950813849629085
2.59,0.05871104858618088
2.592,0.04384033429168904
2.594,0.0240735958127168
2.596,0.08002619470246321
2.598,0.04234835262440098
2.6,0.017673384821135788
2.602,0.03853231230735274
2.604,0.04210189988029163
2.606,0.06534481176659776
2.608,0.07525132864436081
2.61,0.04910451075062174
2.612,0.04969746388736293
2.614,0.07046932243521013
2.616,0.07458277929904586
2.618,0.05317906879739738
2.62,0.08881669151672014
2.622,0.09708401222332012
2.624,0.08882773479005072
2.626,0.11558891774992801
2.628,0.10626513788732034
2.63,0.09819724662620886
2.632,0.09721245122101893
2.634,0.10060550661702777
2.636,0.08244336605714642
2.638,0.05747164836260982
2.64,0.11078879259688712
2.642,0.0792616664269358
2.644,0.1198454376194509
2.646,0.08878299611081307
2.648,0.09975685411244871
2.65,0.13542158972461732
2.652,0.09829315579397316
2.654,0.15691674440860376
2.656,0.14196267400538612
2.658,0.12217640915507214
2.66,0.12024406644065377
2.662,0.13169162665096382
2.664,0.13671047510009204
2.666,0.15978448486390043
2.668,0.14309443159097388
2.67,0.16263880504466172
2.672,0.13742269337110735
2.674,0.1651201103578916
2.676,0.14245608274649876
2.678,0.14624097873914702
2.68,0.12027686106968587
2.682,0.14326219482066338
2.684,0.15389479833169717
2.686,0.10673231775338536
2.688,0.12138492193902148
2.69,0.14069523246661023
2.692,0.14456197330717818
2.694,0.10659644798229875
2.696,0.10473070617569866
2.698,0.1315323169258745
2.7,0.1259086186409486
2.702,0.07624646456994218
2.704,0.11367932648867207
2.706,0.0821482385797194
2.708,0.1054155617228488
2.71,0.11229403658650994
2.712,0.06891363530412556
2.714,0.06157733342696067
2.716,0.09076448852331218
2.718,0.07456633563849413
2.72,0.07841939130810098
2.722,0.043309161665752334
2.724,0.05410481748019154
2.726,0.04411895916322439
2.728,0.015051292919856511
2.73,0.024417938875726873
2.732,0.023197455486103077
2.734,0.005652173522173622
2.736,0.004205165802423083
2.738,0.0034062784283421313
2.74,0.011294764979813958
2.742,0.010901027177191623
2.744,0.010989105569344085
2.746,-0.0233074522997404
2.748,-0.05455941160174081
2.75,-0.021871493586363727
2.7520000000000002,-0.030874210432326424
2.754,-0.03582334290892595
2.7560000000000002,-0.05202650679126554
2.758,-0.05793260389118404
2.7600000000000002,-0.027968039560665868
2.762,-0.009089800999823525
2.7640000000000002,-0.025276138021271807
2.766,-0.006360638807270898
2.7680000000000002,0.005684154025656855
2.77,0.0213858761047771
2.7720000000000002,0.044083157586023936
2.774,0.0729440555658848
2.7760000000000002,0.07795202309716558
2.778,0.1597843686222144
2.7800000000000002,0.17412296678681013
2.782,0.21907061698811875
2.7840000000000003,0.2667777662593387
2.786,0.3698230897015946
2.7880000000000003,0.3723054532983859
2.79,0.41627937871163373
2.7920000000000003,0.5172239888201708
2.794,0.5695667808662892
2.7960000000000003,0.5703307003401372
2.798,0.6175062124269762
2.8000000000000003,0.7162692991668205
2.802,0.7579292133470995
2.8040000000000003,0.7930382766100939
2.806,0.8621594941068805
2.8080000000000003,0.8545331568611456
2.81,0.9118932941331596
2.8120000000000003,0.9473812378144211
2.814,0.9566120783793379
2.816,0.9965407933261607
2.818,1.0170201641644405
2.82,1.012788798000031
2.822,1.0410063032623158
2.824,0.9944729353095154
2.826,0.9873856259093311
2.828,0.9847323913530553
2.83,0.9852406992913736
2.832,0.938736771335343
2.834,0.8983370795191398
2.836,0.8719089394308652
2.838,0.8152283859557526
2.84,0.8202098314673198
2.842,0.7587587848942341
2.844,0.7038566863086385
2.846,0.6622152502359647
2.848,0.6177114116953834
2.85,0.543185375582164
2.852,0.536114923715488
2.854,0.45881698342994504
2.856,0.4296107633592443
2.858,0.37357772357186525
2.86,0.34224980824869183
2.862,0.28132779605256164
2.864,0.29148291502285256
2.866,0.2177930514483988
2.868,0.17390494866144013
2.87,0.16446577222515096
2.872,0.10995521971795043
2.874,0.09153518983400888
2.876,0.08322096083757785
2.878,0.05604511425086196
2.88,0.056385048776100205
2.882,0.05511174346024784
2.884,-0.0012957255663746895
2.886,-0.012345290131408877
2.888,-0.03649488574901208
2.89,0.0050015497275433165
2.892,0.014619698358938605
2.894,0.005903764850883713
2.896,0.018594964365410378
2.898,-0.03184300177102556
2.9,0.005594304157206031
2.902,0.0017928539785787914
2.904,-0.024898019911401767
2.906,0.022655541175287175
2.908,0.03041097856931086
2.91,0.035662780486466567
2.912,-0.01748495196806453
2.914,0.04873452640359526
2.916,-0.00901482561966039
2.918,-0.010811268359546714
2.92,0.031637096004632846
2.922,0.01100921204154125
2.924,0.03530086222027069
2.926,0.006936752671580816
2.928,0.017137927086419265
2.93,0.04939348845519151
2.932,0.014130793905288729
2.934,-0.005507608832851153
2.936,0.097031108824823
2.938,0.05168463877534052
2.94,0.033478298568154576
2.942,0.09732859167982467
2.944,0.08030757706395686
2.946,0.07785167518352896
2.948,0.10167870851255807
2.95,0.08079516471535271
2.952,0.0935017403374797
2.954,0.11091707046829112
2.956,0.11207834671106909
2.958,0.12312067823526178
2.96,0.11872413497128945
2.962,0.0864401077034247
2.964,0.1537947526509969
2.966,0.08934910612504159
2.968,0.14817916482030624
2.97,0.16918858304606632
2.972,0.13233275087201093
2.974,0.11624443875398188
2.976,0.17371612495163063
2.978,0.1856096627148206
2.98,0.13812655758747583
2.982,0.2012071808098852
2.984,0.17421201274007525
2.986,0.15997374856301605
2.988,0.17405217851683052
2.99,0.1973078722425035
2.992,0.1657638964550027
2.994,0.20793061338533075
2.996,0.19608530019833914
2.998,0.18991976595359858
3.0,0.1910815194933003
3.0020000000000002,0.1583532082901074
3.004,0.20181964770508937
3.0060000000000002,0.1599968388289079
3.008,0.1758881046068717
3.0100000000000002,0.2040745042080805
3.012,0.20395155037486304
3.0140000000000002,0.20825025992978952
3.016,0.14530367669973357
3.0180000000000002,0.23288597063278813
3.02,0.18778321259854425
3.0220000000000002,0.18467202135067118
3.024,0.19941863311750954
3.0260000000000002,0.19511967808598896
3.028,0.16284418042099752
3.0300000000000002,0.1732958025089138
3.032,0.16852639762664287
3.0340000000000003,0.174635280815702
3.036,0.21417184188172356
3.0380000000000003,0.17167364489961162
3.04,0.18843109926119286
3.0420000000000003,0.19912088632614242
3.044,0.14309522138186828
3.0460000000000003,0.19713939758711227
3.048,0.14005413592630367
3.0500000000000003,0.17093324910536226
3.052,0.17221638529868039
3.0540000000000003,0.16683315387664602
3.056,0.1347596731554728
3.0580000000000003,0.1356443767081602
3.06,0.14484634326498427
3.0620000000000003,0.10397729780344794
3.064,0.14426453091869912
3.0660000000000003,0.12722351390091102
3.068,0.10981765117136909
3.0700000000000003,0.10981030861998
3.072,0.11539047310312744
3.074,0.07804451287147614
3.076,0.06810727870778618
3.078,0.07784129041688498
3.08,0.0909758087281076
3.082,0.04706968991749315
3.084,0.020741668539824884
3.086,0.039375777630144805
3.088,0.028709426881057074
3.09,0.053839207649877305
3.092,0.01741763595019795
3.094,0.0009621305244553804
3.096,0.011495622942976184
3.098,-0.04690005094297611
3.1,0.00210427494575406
3.102,-0.006151505872518462
3.104,-0.023426380769129236
3.106,-0.01690903395288186
3.108,-0.05240445205992891
3.11,-0.056709791694879504
3.112,-0.028448419252487058
3.114,-0.12657000724897352
3.116,-0.14396586012180612
3.118,-0.09601000692572426
3.12,-0.10148414621384773
3.122,-0.11800328947197065
3.124,-0.1195045296410411
3.126,-0.13338259706843295
3.128,-0.16120009010672606
3.13,-0.11530424707123559
3.132,-0.11587490370815098
3.134,-0.15669678038051482
3.136,-0.17819066057286465
3.138,-0.1149674854744798
3.14,-0.15238914451657193
3.142,-0.16951334397816037
3.144,-0.1398923951754271
3.146,-0.14057763013498925
3.148,-0.17816308687968302
3.15,-0.1804184342979078
3.152,-0.16877070819987533
3.154,-0.19579732380733356
3.156,-0.16475063978698334
3.158,-0.17429417189776786
3.16,-0.17635938409457103
3.162,-0.17943712117133645
3.164,-0.16439743167802773
3.166,-0.16103653439920834
3.168,-0.17282928202576903
3.17,-0.1543164967922249
3.172,-0.1597725984868944
3.174,-0.16565501784649744
3.176,-0.18184522243104123
3.178,-0.18594453904788552
3.18,-0.16120314864444996
3.182,-0.18800767755624506
3.184,-0.15165602144826668
3.186,-0.16475726006334604
3.188,-0.15894545749161484
3.19,-0.1733802481774934
3.192,-0.17957710758002082
3.194,-0.20474957584841663
3.196,-0.18431215793302796
3.198,-0.13663428786303958
3.2,-0.2019947791780937
3.202,-0.15920117185229202
3.204,-0.14500913798207468
3.206,-0.1481864449824683
3.208,-0.13843802937885494
3.21,-0.16326028949132895
3.212,-0.1588456551102079
3.214,-0.1479334095865687
3.216,-0.16902009349915242
3.218,-0.13942960868869825
3.22,-0.16129660897951828
3.222,-0.17908905477018872
3.224,-0.15986728923266025
3.226,-0.11877763752880555
3.228,-0.1497212197510715
3.23,-0.09367614001350003
3.232,-0.14099558711137827
3.234,-0.13295297472526674
3.236,-0.10748382663630242
3.238,-0.13822044324050609
3.24,-0.12263795052808313
3.242,-0.07500647311554952
3.244,-0.09873733174878006
3.246,-0.10250215170813601
3.248,-0.08886503905293856
3.25,-0.09253813950043954
3.2520000000000002,-0.10302274264462521
3.254,-0.08768702992100569
3.2560000000000002,-0.11114820718975787
3.258,-0.05294576280555407
3.2600000000000002,-0.051218329386676364
3.262,-0.07980190191588268
3.2640000000000002,-0.10051465733624118
3.266,-0.054000425014866474
3.2680000000000002,-0.0634634924131365
3.27,-0.052747759089064254
3.2720000000000002,-0.07559146223895918
3.274,-0.06650729430539856
3.2760000000000002,-0.09344768860309717
3.278,-0.05855379240396076
3.2800000000000002,-0.04402832815500831
3.282,-0.0550654950377031
3.2840000000000003,-0.07584623632236513
3.286,-0.04449811997115983
3.2880000000000003,-0.05809153771016985
3.29,-0.02586101458069173
3.2920000000000003,-0.04364862872953328
3.294,-0.07601106006333119
3.2960000000000003,-0.023448530211421167
3.298,-0.05562177629646996
3.3000000000000003,-0.0761139082097004
3.302,-0.06230350590550862
3.3040000000000003,-0.050631430387717995
3.306,-0.04528536646394012
3.3080000000000003,-0.055050288529878075
3.31,-0.0751398139299477
3.3120000000000003,-0.0498573032905239
3.314,-0.07784547895040485
3.3160000000000003,-0.03040228254416099
3.318,-0.05832090753334383
3.3200000000000003,-0.013451681834589356
3.322,-0.048882791820243174
3.3240000000000003,-0.050767103681552544
3.326,-0.009925725444502969
3.3280000000000003,-0.04886447678045376
3.33,-0.042759570598128516
3.332,-0.05171359253828569
3.334,-0.038607837482040504
3.336,-0.050582972722784975
3.338,-0.03868478678891039
3.34,-0.032455256122078315
3.342,-0.03596299236753678
3.344,-0.029902472044426132
3.346,-0.03599449748560269
3.348,-0.05443077965064685
3.35,-0.012264762985691015
3.352,-0.04413090957418819
3.354,-0.030723664456866525
3.356,-0.04571373079905833
3.358,-0.022477800266784784
3.36,-0.09593586083644878
3.362,-0.03532820015839659
3.364,-0.03418498205543623
3.366,-0.0619959256178884
3.368,-0.07990762398496803
3.37,-0.06497541081625569
3.372,-0.055889727688374906
3.374,-0.0336844796447533
3.376,-0.056478005833775255
3.378,-0.03489105414071468
3.38,-0.018233215393200795
3.382,-0.06451026396700582
3.384,-0.06397792529158611
3.386,-0.06352566875271659
3.388,0.014314022645894871
3.39,-0.04211771047436746
3.392,-0.03400006454266273
3.394,-0.0650356917354593
3.396,-0.01838552522499349
3.398,-0.038573468067231755
3.4,-0.0724408481351829
3.402,-0.06821803868086856
3.404,-0.04517228646054334
3.406,-0.039925451418318963
3.408,-0.05710001219636291
3.41,-0.01039383228405081
3.412,-0.03132246242600601
3.414,-0.027923815747828897
3.416,-0.04326322286801369
3.418,-0.0401483982177366
3.42,-0.06381481871894903
3.422,-0.0358282946485951
3.424,-0.06696966304866096
3.426,-0.017417951996898554
3.428,-0.06401849509090574
3.43,-0.027314676584231545
3.432,-0.043741501687396746
3.434,-0.06852941968088341
3.436,-0.03824465654004978
3.438,-0.05028009188258434
3.44,-0.06273259852407193
3.442,-0.09031293354271608
3.444,-0.036921135800861496
3.446,-0.02650201396991768
3.448,-0.0012120152393416805
3.45,-0.08173284069920275
3.452,-0.0364952001139304
3.454,-0.029166518033932533
3.456,-0.005330762329192646
3.458,-0.03996699984973626
3.46,-0.024284034963594173
3.462,-0.03198747429552401
3.464,-0.044164090621413465
3.466,-0.019846318418984384
3.468,-0.03414771311138605
3.47,-0.016506424404051985
3.472,-0.006379806214668181
3.474,-0.05117090127839364
3.476,-0.013457059906369674
3.478,-0.00775827083115381
3.48,0.02485741498538914
3.482,-0.010238798214080483
3.484,-0.01993697508610845
3.486,-0.03528555261801002
3.488,-0.010705609991999265
3.49,0.007003157304722486
3.492,0.009367335734478753
3.494,0.03102375012028973
3.496,0.00615716025795679
3.498,0.004124886869402308
3.5,0.005304274218669969
3.5020000000000002,0.02283582322449479
3.504,0.035240129678639424
3.5060000000000002,0.02160189785686549
3.508,0.03038533302563977
3.5100000000000002,0.0553100688361592
3.512,0.050925457973487284
3.5140000000000002,0.07461964936146931
3.516,0.056487322086393885
3.5180000000000002,0.0490812052792891
3.52,0.054795037480801084
3.5220000000000002,0.029054113506991608
3.524,0.04560773142402667
3.5260000000000002,0.028876539294689002
3.528,0.09801613289194375
3.5300000000000002,0.026626874400756825
3.532,0.06697073703336863
3.5340000000000003,0.05710346909367203
3.536,0.047760387809684404
3.5380000000000003,0.04166070630111032
3.54,0.024595356001536908
3.5420000000000003,0.045447240883865744
3.544,0.024845415718139544
3.5460000000000003,0.05998098419102633
3.548,0.02744224160144993
3.5500000000000003,0.01804764171968938
3.552,0.0551595905243628
3.5540000000000003,0.02259909833554718
3.556,0.027709980489076712
3.5580000000000003,0.013587514648701372
3.56,0.014969716139504437
3.5620000000000003,-0.007817880832028709
3.564,0.020651459951324752
3.5660000000000003,0.03227447177385294
3.568,-0.019568452122617992
3.5700000000000003,-0.008133353443517982
3.572,-0.01272422925282872
3.5740000000000003,0.027107151524616672
3.576,0.0036575046405075314
3.5780000000000003,-0.03506397498524352
3.58,0.002909975718468537
3.5820000000000003,-0.04380403094044598
3.584,-0.03761080352681331
3.586,-0.013771820005374816
3.588,-0.03220970452044598
3.59,-0.04889010507092985
3.592,-0.08033808815997337
3.594,-0.07112221231803902
3.596,-0.06863667685294114
3.598,-0.15222017442178348
3.6,-0.10990314966479034
3.602,-0.13607486966293958
3.604,-0.0764070069960856
3.606,-0.13397343943882617
3.608,-0.10094773743794469
3.61,-0.09035194649757287
3.612,-0.11109185242602945
3.614,-0.12425409020032901
3.616,-0.10380847459012785
3.618,-0.12016965884379094
3.62,-0.10443988501498996
3.622,-0.10242465290588935
3.624,-0.10858444125060565
3.626,-0.03160022983117962
3.628,-0.07644898671829459
3.63,0.013598268566982371
3.632,-0.028894933248080436
3.634,0.03986600090546492
3.636,0.08694244873500737
3.638,0.08225385750949582
3.64,0.18936637796679845
3.642,0.22257166476463722
3.644,0.2543952413217657
3.646,0.34584041944282273
3.648,0.41298904981568085
3.65,0.4270654021287232
3.652,0.4842121911140176
3.654,0.5806370496254766
3.656,0.6040928863601245
3.658,0.6264778210044234
3.66,0.7123009200332141
3.662,0.7219637449872529
3.664,0.7665158752967042
3.666,0.8178782377171797
3.668,0.8691430571266642
3.67,0.8759250839819052
3.672,0.8723440573553153
3.674,0.9278518128722075
3.676,0.8952026361394791
3.678,0.9316876753805182
3.68,0.97910066001136
3.682,0.9403419028267365
3.684,0.9148823706780688
3.686,0.8812254899677718
3.688,0.8772842410080851
3.69,0.8541175160284868
3.692,0.81122771868722
3.694,0.7626601079639969
3.696,0.7421152650218631
3.698,0.7371133666919804
3.7,0.6626682214477589
3.702,0.5913503834524096
3.704,0.5792327826838781
3.706,0.5220721181575902
3.708,0.48735462608353575
3.71,0.4492448138155606
3.712,0.3690489155232731
3.714,0.4100177581240119
3.716,0.2645780736019754
3.718,0.24993920949036968
3.72,0.21331785072629922
3.722,0.14420305008904358
3.724,0.1380875336198275
3.726,0.11408756095900802
3.728,0.09072564515831012
3.73,0.032449280056742164
3.732,0.04304694015495736
3.734,0.005384107959453405
3.736,-0.0167453001728311
3.738,-0.044939628715471115
3.74,-0.03221444585057649
3.742,-0.08248146854220526
3.744,-0.04508856988770325
3.746,-0.08790299380338239
3.748,-0.04200743995698924
3.75,-0.037316871696203284
3.7520000000000002,-0.0746335631363895
3.754,-0.041272941583740466
3.7560000000000002,-0.10179577330234346
3.758,-0.046140468644728205
3.7600000000000002,-0.029632174437737236
3.762,-0.032115668405684354
3.7640000000000002,-0.00983546437479223
3.766,-0.062288779631148136
3.7680000000000002,-0.028917998897232518
3.77,-0.042306221036694326
3.7720000000000002,-0.009025615521606583
3.774,-0.04550975582573016
3.7760000000000002,-0.06014593299132562
3.778,-0.029892194418075457
3.7800000000000002,-0.01959098206741007
3.782,-0.009059362848546767
3.7840000000000003,-0.0034993680568324217
3.786,-0.011542650814991388
3.7880000000000003,0.013182007372763465
3.79,0.027456200127283805
3.7920000000000003,0.007625693474646852
3.794,0.01622410932464627
3.7960000000000003,0.019651545172318305
3.798,0.009634877878805771
3.8000000000000003,0.040322756082787584
3.802,0.04853924191179446
3.8040000000000003,0.07650583259920488
3.806,0.052961947359084854
3.8080000000000003,0.03966816070962807
3.81,0.0574442609015718
3.8120000000000003,0.08468814412699863
3.814,0.08479319666507881
3.8160000000000003,0.0662859396067451
3.818,0.07720417122642564
3.8200000000000003,0.1260575495081689
3.822,0.11926279333974303
3.8240000000000003,0.11271932780159853
3.826,0.1293801507692282
3.8280000000000003,0.1337652985552024
3.83,0.10609232148468817
3.8320000000000003,0.1705474998461975
3.834,0.12583714349179087
3.8360000000000003,0.09165257371041763
3.838,0.1315676688253232
3.84,0.1383715709822467
3.842,0.11889692887221147
3.844,0.11005677907284646
3.846,0.14614510952263995
3.848,0.14765206413387694
3.85,0.16706795237555055
3.852,0.1824262161979775
3.854,0.17852158350823052
3.856,0.12543072381103476
3.858,0.13541132767587344
3.86,0.1708491146287559
3.862,0.17940878894049556
3.864,0.1607634150145726
3.866,0.18329967348335155
3.868,0.17061272208819378
3.87,0.17487273585154126
3.872,0.153047763254398
3.874,0.1416798474499072
3.876,0.17199159808569714
3.878,0.1700625959636018
3.88,0.15570190441992388
3.882,0.17238739050492974
3.884,0.14210725027266188
3.886,0.16383358671805479
3.888,0.1756805411678185
3.89,0.1738795324799822
3.892,0.17220058525262713
3.894,0.1944521383377192
3.896,0.16589537913868607
3.898,0.17433019339702935
3.9,0.16030141168280795
3.902,0.1911282116602096
3.904,0.17086509876764952
3.906,0.15521730169337347
3.908,0.13857524736201354
3.91,0.15102205155469614
3.912,0.0935140537266135
3.914,0.11772776215326433
3.916,0.18355162005044923
3.918,0.12764080874685738
3.92,0.13800661531471714
3.922,0.10842190466638058
3.924,0.10003291784902904
3.926,0.12391615021165304
3.928,0.10590506620519846
3.93,0.052003755109214164
3.932,0.062034631001060936
3.934,0.085573032116506
3.936,0.0729501324894745
3.938,0.07717661845848077
3.94,0.05937927993339376
3.942,0.032190809671532164
3.944,0.03996752899468306
3.946,0.04669262229418386
3.948,0.0320086811286312
3.95,0.011147203285176224
3.952,-0.004473010204730267
3.954,-0.02045240590663784
3.956,0.015328452046137368
3.958,-0.027215730867530395
3.96,-0.01461036699684625
3.962,-0.03385687019344936
3.964,-0.02854460063590561
3.966,-0.07495210297820137
3.968,-0.07617168313024734
3.97,-0.05734859698118165
3.972,-0.10273356862787322
3.974,-0.05470635051975144
3.976,-0.09895108215955513
3.978,-0.07368832608511765
3.98,-0.12461586683957446
3.982,-0.12246153556944606
3.984,-0.11758186274575384
3.986,-0.14568184462301909
3.988,-0.14239354952852923
3.99,-0.11682557671201615
3.992,-0.14632345812779438
3.994,-0.15097481433299875
3.996,-0.127993007204564
3.998,-0.09139765374259942
4.0,-0.1440635437384704
4.002,-0.1475891824548731
4.0040000000000004,-0.15054615399028787
4.006,-0.10500447480144709
4.008,-0.1286876127436635
4.01,-0.154039920418331
4.0120000000000005,-0.11030346543586347
4.014,-0.10824104229623714
4.016,-0.14500779611076292
4.018,-0.17305167204214011
4.0200000000000005,-0.12255904681556103
4.022,-0.15769541866402492
4.024,-0.12097717581567557
4.026,-0.16315289575436182
4.0280000000000005,-0.1561089775598766
4.03,-0.13716553444364715
4.032,-0.17791151706480896
4.034,-0.14507114750418051
4.0360000000000005,-0.15038900599091637
4.038,-0.12615275865799333
4.04,-0.15364176960690906
4.042,-0.12104547710428032
4.0440000000000005,-0.130085982321237
4.046,-0.09580597562248039
4.048,-0.14454719719256534
4.05,-0.10324390906358544
4.0520000000000005,-0.1526451348508387
4.054,-0.1554074243559895
4.056,-0.14931068323946423
4.058,-0.1514689017083078
4.0600000000000005,-0.10845550030603651
4.062,-0.0979299766731784
4.064,-0.10032407202472593
4.066,-0.10459112902023644
4.0680000000000005,-0.11608756312820766
4.07,-0.11753229152167007
4.072,-0.1033981685743672
4.074,-0.09970677295676807
4.0760000000000005,-0.1215241566187312
4.078,-0.046211000524942196
4.08,-0.09184510001056947
4.082,-0.09247753639380847
4.0840000000000005,-0.09347408168412391
4.086,-0.09047605454790848
4.088,-0.05737173875954707
4.09,-0.0980010843613788
4.0920000000000005,-0.057636399317682364
4.094,-0.05958067534644386
4.096,-0.057311685343654724
4.098,-0.03383744651206934
4.1,-0.0701392958684582
4.102,-0.08255954789821897
4.104,-0.040789358018721
4.106,-0.061363565412035456
4.108,-0.030072751551231108
4.11,-0.04717790852945273
4.112,-0.046114202163188026
4.114,-0.05251781520851918
4.116,-0.04106148730222691
4.118,-0.050503118514248824
4.12,0.0004351388159767808
4.122,-0.027281482943615883
4.124,-0.007962890912707653
4.126,0.00014832914634749228
4.128,0.006535130598712698
4.13,-0.014461642191546924
4.132,0.0053246528627473935
4.134,0.0038874714120105264
4.136,0.015898692767485026
4.138,0.007472680167211886
4.14,0.020379636752336765
4.142,0.01832630391927537
4.144,-0.011357328374833603
4.146,-0.019522296345446118
4.148,0.03893685621284514
4.15,-0.0018274579343998312
4.152,0.007355576262144324
4.154,-0.010560599100647662
4.156,0.008743133287465139
4.158,0.03826071184404714
4.16,-0.0008031220403211161
4.162,0.014899257178207928
4.164,0.03041641503980282
4.166,0.02512746879548314
4.168,0.04182325420964238
4.17,0.03861426109884586
4.172,-0.0013044797565449325
4.174,0.03827555489864646
4.176,0.06393203153693067
4.178,0.010535890864399855
4.18,0.01331423421648863
4.182,0.02455205752072467
4.184,0.023737568696898737
4.186,0.03011533136625946
4.188,0.0438954774851762
4.19,0.03647001754010769
4.192,0.03387002453749018
4.194,0.008202863533975448
4.196,0.015825048677396487
4.198,0.006713243324889568
4.2,0.03271620292827898
4.202,0.013050466256475893
4.204,0.028038978472989758
4.206,0.03843817329216156
4.208,0.013793680457289431
4.21,0.0065117435963366836
4.212,0.09029994826147895
4.214,0.04703596853352215
4.216,0.02472109597538743
4.218,0.024738321174040973
4.22,0.011063341842514464
4.222,0.020946895832618235
4.224,0.04182882683031076
4.226,0.02443483479420714
4.228,0.003714794179580835
4.23,0.04948556932394699
4.232,0.052135016053101446
4.234,0.03498610717271512
4.236,0.042456177089611434
4.238,0.06591898308480668
4.24,0.04523277595110045
4.242,0.031111853539622737
4.244,0.007397769198947495
4.246,0.04133552603300461
4.248,0.03730323964920687
4.25,0.06716024967865326
4.252,0.019819387507130595
4.2540000000000004,0.06770142261717123
4.256,0.018050173329254116
4.258,0.042103641914174775
4.26,0.018262988568577353
4.2620000000000005,0.04275286021063988
4.264,-0.007309134414688169
4.266,0.03479338912093959
4.268,0.04921239033654869
4.2700000000000005,0.057188700549792686
4.272,0.031126750929245814
4.274,0.0646384021361147
4.276,0.014426601100856173
4.2780000000000005,0.07227392734673288
4.28,0.04319497068849396
4.282,0.01949093079924485
4.284,0.03722637835041575
4.2860000000000005,0.04406240705890999
4.288,0.06347852017104605
4.29,0.05235920516511885
4.292,0.07116017548713978
4.2940000000000005,0.05083781388987006
4.296,0.014808180014593065
4.298,0.03016606160312781
4.3,0.03184040423915541
4.3020000000000005,0.015437144726104388
4.304,0.053016604913818766
4.306,0.055320648672678434
4.308,0.04884083712528563
4.3100000000000005,0.02967230545259911
4.312,0.02594443821151424
4.314,0.053729359456504186
4.316,0.05629088896299803
4.3180000000000005,0.05456359209729037
4.32,0.07335375641295151
4.322,0.07573109072299511
4.324,0.03808762980845294
4.3260000000000005,0.0458878477678913
4.328,0.07120740762423024
4.33,0.04825084696267362
4.332,0.04523808805452343
4.3340000000000005,0.07648733110102578
4.336,0.11654749844579188
4.338,0.03973388354512024
4.34,0.1048746504733416
4.3420000000000005,0.09494534793288151
4.344,0.1349100977820759
4.346,0.09760729828336762
4.348,0.10824085156366503
4.3500000000000005,0.0942545725989288
4.352,0.0660851368869165
4.354,0.09858504094334246
4.356,0.07808240823341296
4.358,0.12156331775149798
4.36,0.1354207599568717
4.362,0.15689047981280066
4.364,0.15959038817163848
4.366,0.11460821219809238
4.368,0.09773723620626873
4.37,0.12125250488034361
4.372,0.1263624816242795
4.374,0.1403272545224533
4.376,0.11836437620197482
4.378,0.14874758390868362
4.38,0.13980147150952604
4.382,0.13853680745532623
4.384,0.12202032796766138
4.386,0.15914878799616722
4.388,0.1482948638418023
4.39,0.16973937769693664
4.392,0.1211291440214228
4.394,0.16055022776312738
4.396,0.13298298106381914
4.398,0.08786672432193857
4.4,0.11619035597145488
4.402,0.14845443363922342
4.404,0.11481559122836059
4.406,0.10684769372513224
4.408,0.10156293365661623
4.41,0.14235264424028676
4.412,0.13541361474253596
4.414,0.15833172956985003
4.416,0.14720429998796186
4.418,0.13662673796355812
4.42,0.10462927969110222
4.422,0.13526658819830897
4.424,0.10168703082639349
4.426,0.07700114388400443
4.428,0.09716770467933378
4.43,0.10544982799523125
4.432,0.10786144875364742
4.434,0.07999616163151266
4.436,0.09112828127213757
4.438,0.07911331037896706
4.44,0.038764722587728784
4.442,0.08557888083708098
4.444,0.040247207443392
4.446,0.03433187992008003
4.448,0.010303103824697913
4.45,0.02116428474070598
4.452,0.020604232241356008
4.454,0.018731769995360553
4.456,-0.025853290764679467
4.458,0.004390158844243361
4.46,0.010493104689972936
4.462,0.0034163366301867143
4.464,-0.04036191399224243
4.466,0.0007281750223108452
4.468,-0.018861303476763902
4.47,-0.01437507427978034
4.472,-0.014717140219775493
4.474,0.0032447926038391
4.476,-0.01422767376733483
4.478,-0.012509641881308868
4.48,0.008701700624482105
4.482,0.002597463952862176
4.484,0.042428238075566685
4.486,0.09745876767946449
4.488,0.07466443074529805
4.49,0.15296891819982864
4.492,0.11355486869871398
4.494,0.24921192917613222
4.496,0.24903766996474822
4.498,0.29420892252645525
4.5,0.348109550912292
4.502,0.4049914135895451
4.5040000000000004,0.47453482259877827
4.506,0.5077124767163635
4.508,0.5374514872937871
4.51,0.6035209764100264
4.5120000000000005,0.6706053466741755
4.514,0.714862335233411
4.516,0.7535527540039559
4.518,0.8001615375844893
4.5200000000000005,0.8438411578045489
4.522,0.8619142309486666
4.524,0.9169888774119441
4.526,0.9520288253732877
4.5280000000000005,0.9679963038043958
4.53,0.9985882664844524
4.532,1.0401062308602798
4.534,1.0543993812241939
4.5360000000000005,1.0218475313848105
4.538,1.0328808286031275
4.54,1.0458526408706283
4.542,0.9977751417640957
4.5440000000000005,0.9661380050766115
4.546,0.9619116400797936
4.548,0.9447606098453393
4.55,0.9065630719522698
4.5520000000000005,0.8743753597173315
4.554,0.8126004977348602
4.556,0.8154395782134735
4.558,0.7223107353480822
4.5600000000000005,0.7056866847686435
4.562,0.664425254072529
4.564,0.5665073777434619
4.566,0.577752533045927
4.5680000000000005,0.4867598946778314
4.57,0.4631442486865027
4.572,0.3947827972697216
4.574,0.35073745537190393
4.5760000000000005,0.3266897771013346
4.578,0.27963649184072614
4.58,0.19686738985915508
4.582,0.17458725280448156
4.5840000000000005,0.18332889840588648
4.586,0.14128583185686677
4.588,0.1114653011342556
4.59,0.12723794648131145
4.5920000000000005,0.0857933440059135
4.594,0.05268442365848287
4.596,0.033908070564384885
4.598,0.051053765611856296
4.6000000000000005,0.06901207517493207
4.602,0.03435977665770796
4.604,0.04190684127597459
4.606,0.04947880874812913
4.6080000000000005,0.014628998781351345
4.61,0.027856279953198896
4.612,0.03398624165027379
4.614,0.032716609424338905
4.616,0.0383666352442071
4.618,0.01568428008601212
4.62,0.023396368200563136
4.622,0.03456634290783837
4.624,0.012977051432445225
4.626,0.07132608956816695
4.628,0.05935577672915876
4.63,0.025805933612722105
4.632,0.0399008937558071
4.634,0.0319611802531774
4.636,0.04116417432897338
4.638,0.04623765451223359
4.64,0.05806434139312919
4.642,0.09289455359846543
4.644,0.030152006262621635
4.646,0.044277045602409845
4.648,0.025954415257068993
4.65,0.1057728355673514
4.652,0.10912928046123707
4.654,0.10812609985015847
4.656,0.11073687306752585
4.658,0.11317302363822457
4.66,0.09689931710581164
4.662,0.10951069453593598
4.664,0.13898799682124463
4.666,0.13668130645738708
4.668,0.12891360947886346
4.67,0.11852440983608016
4.672,0.14249552642075441
4.674,0.17509086549292976
4.676,0.19194664101956244
4.678,0.16431457338752747
4.68,0.1495287015946968
4.682,0.14927486512974175
4.684,0.14839389900706226
4.686,0.2077143645695286
4.688,0.20320641562725622
4.69,0.21258667766165587
4.692,0.21938639464827972
4.694,0.18773461065837282
4.696,0.19108125527919656
4.698,0.17144996883489957
4.7,0.22894945420335605
4.702,0.20525672166025377
4.704,0.21941436720188784
4.706,0.18582748477959765
4.708,0.2525436112541437
4.71,0.2050532480725988
4.712,0.24691694527171126
4.714,0.21468642193633453
4.716,0.25189029111571015
4.718,0.21353523685979103
4.72,0.2239294573807806
4.722,0.21701728327047648
4.724,0.2430002035741941
4.726,0.23554421572600126
4.728,0.2689951052086689
4.73,0.2611400599610946
4.732,0.2349170875183212
4.734,0.2150899795325342
4.736,0.2047613811964612
4.738,0.23658463188635254
4.74,0.24400260989993802
4.742,0.24183103510584167
4.744,0.21842736394206858
4.746,0.2400113902822059
4.748,0.223477880421716
4.75,0.23051626600957464
4.752,0.24513698226707148
4.7540000000000004,0.24745861153592671
4.756,0.23284124432599512
4.758,0.20383101730015432
4.76,0.2162412393795783
4.7620000000000005,0.17984885590115704
4.764,0.19441628150974208
4.766,0.19116062355726077
4.768,0.1882208463905181
4.7700000000000005,0.18897486660336152
4.772,0.17825598355112746
4.774,0.22488663460945219
4.776,0.1831874695643262
4.7780000000000005,0.17043789885131
4.78,0.161363477276109
4.782,0.17196138489860502
4.784,0.15315153128675743
4.7860000000000005,0.11288268453363585
4.788,0.10845071786911185
4.79,0.132590930032609
4.792,0.11889949791803545
4.7940000000000005,0.11522555939778058
4.796,0.06855130948149872
4.798,0.106912193260471
4.8,0.07929770514041583
4.8020000000000005,0.10460404095654377
4.804,0.07513476504523908
4.806,0.07869964624681786
4.808,0.05565730243989864
4.8100000000000005,0.07210196937584762
4.812,0.035689350995420546
4.814,0.059553325213040714
4.816,0.03812615590266016
4.8180000000000005,0.006165417545109044
4.82,-0.05053230280177305
4.822,0.04265340215919794
4.824,-0.028596815509005103
4.8260000000000005,-0.005770306840471223
4.828,-0.07594858174351757
4.83,-0.05128699073608921
4.832,-0.052074099853865595
4.8340000000000005,-0.05430807348798529
4.836,-0.08070563948179854
4.838,-0.07625389747262558
4.84,-0.08894851356077592
4.8420000000000005,-0.10842279161869495
4.844,-0.10889638168486765
4.846,-0.08533410589334371
4.848,-0.09078560100184838
4.8500000000000005,-0.16201078494856963
4.852,-0.10300746592838285
4.854,-0.10390594128145537
4.856,-0.09370931585057411
4.8580000000000005,-0.09212349259554845
4.86,-0.14178521151215778
4.862,-0.08373976883877458
4.864,-0.12566023269367912
4.866,-0.14106632481856876
4.868,-0.11714754552951506
4.87,-0.14030635234814462
4.872,-0.14536927364834445
4.874,-0.1382299048216849
4.876,-0.11746468694350627
4.878,-0.11052419134468147
4.88,-0.09009726431729684
4.882,-0.13090347617630363
4.884,-0.09424873779015691
4.886,-0.13226029637050274
4.888,-0.12974624153500908
4.89,-0.1441593210761291
4.892,-0.16156483372174968
4.894,-0.12925583287256157
4.896,-0.1466233921724528
4.898,-0.14639770965074084
4.9,-0.15428763622093822
4.902,-0.1216289011504317
4.904,-0.1494518301553572
4.906,-0.13123514712169795
4.908,-0.12493735369881362
4.91,-0.1355288925410113
4.912,-0.14342716195313684
4.914,-0.11318994809625407
4.916,-0.11615989610465316
4.918,-0.11160352887331815
4.92,-0.08579135562203019
4.922,-0.09765814308430612
4.924,-0.10175283896608417
4.926,-0.07146392171423643
4.928,-0.11451916501601575
4.93,-0.12146148995986361
4.932,-0.1151064734479724
4.934,-0.09780998169429517
4.936,-0.1004149384442994
4.938,-0.0783801669271766
4.94,-0.08319051919432849
4.942,-0.09958463751155172
4.944,-0.05461658314001966
4.946,-0.04126393091179543
4.948,-0.07656621304760015
4.95,-0.04281177483181031
4.952,-0.019958075630484545
4.954,-0.04663919587742248
4.956,-0.05843251177851305
4.958,-0.05409898675003358
4.96,-0.061234576335792025
4.962,-0.09847821532657991
4.964,-0.10238249294977106
4.966,-0.030503506932409323
4.968,-0.058606499350036576
4.97,-0.059382303913669214
4.972,-0.057426510812121606
4.974,-0.06721929225137906
4.976,-0.0724411189651972
4.978,-0.017939525812404537
4.98,-0.025472127382794953
4.982,-0.039373271347596474
4.984,-0.054089088912253926
4.986,-0.04177857069184594
4.988,-0.03833667048044884
4.99,-0.051276464451300456
4.992,0.002013939216810017
4.994,-0.011660356611087164
4.996,-0.019414056034449338
4.998,-0.04253166227287179
5.0,-0.027276500411921447
5.002,-0.030289838026542802
5.0040000000000004,-0.036587918670845945
5.006,0.003316010583501384
5.008,-0.01461386022548143
5.01,0.02330507907554809
5.0120000000000005,-0.03664237597615142
5.014,0.020871677765667833
5.016,-0.006142075270560635
5.018,-0.00037538805155503015
5.0200000000000005,0.025237983653245994
5.022,-0.03642165625686773
5.024,0.023696165361048745
5.026,0.004125308352098059
5.0280000000000005,-0.002956263619748235
5.03,-0.019034070262862475
5.032,-0.00032896103543965036
5.034,-0.024754420399821203
5.0360000000000005,-0.010115032242902222
5.038,-0.011760168526557375
5.04,-0.03952042623812121
5.042,-0.01200597220740199
5.0440000000000005,0.026074799569579747
5.046,0.012633341823429222
5.048,-0.01702740109339857
5.05,-0.009618007472946288
5.0520000000000005,-0.009697263151096045
5.054,-0.01313878098752785
5.056,0.02590230544874017
5.058,-0.033761772051296136
5.0600000000000005,-0.026696584731980364
5.062,-0.07779754837923471
5.064,0.013197291730752226
5.066,-0.004345297219651377
5.0680000000000005,-0.022649825365388503
5.07,-0.011723496920446207
5.072,-0.05708360079160277
5.074,0.011402383024289338
5.0760000000000005,-0.05817368292609446
5.078,-0.010534167164172863
5.08,-0.002085981645834905
5.082,-0.004297575200870744
5.0840000000000005,-0.0031808722723491224
5.086,-0.0358501536214353
5.088,-0.045510760911081534
5.09,0.004351374229016648
5.0920000000000005,0.013554660998381728
5.094,0.0076094420665011936
5.096,-0.037141774510677926
5.098,0.014599102046081058
5.1000000000000005,-0.04153209154794679
5.102,-0.029711089970400537
5.104,0.007754957228752345
5.106,-0.0241175632579016
5.1080000000000005,-0.04801451715217286
5.11,-0.02605721687246722
5.112,-0.019400895777448513
5.114,0.01695792213800783
5.1160000000000005,-0.016098548542052147
5.118,0.020655825432321518
5.12,-0.03319634011661992
5.122,0.00044598325646331825
5.124,-0.030498848332465373
5.126,-0.013887113776944607
5.128,-0.0009048605247058135
5.13,-0.04732427891917174
5.132,-0.032862640875564696
5.134,-0.039105910406602634
5.136,-0.010724176991455957
5.138,-0.025776015703707716
5.14,-0.0043840885783367695
5.142,-0.025079391990011052
5.144,-0.036996301180740904
5.146,-0.008265327100183939
5.148,-0.022849865924420835
5.15,-0.021482412393637778
5.152,-0.0005299588490312989
5.154,-0.020326194665837155
5.156,-0.01293637008983806
5.158,-0.028812155784105575
5.16,-0.005613795007505997
5.162,-0.0008505896909717769
5.164,-0.03060082013580155
5.166,-0.0032751416727061326
5.168,0.008224511712243867
5.17,0.007911331765616309
5.172,-0.02749384847156861
5.174,-0.041624678464033664
5.176,-0.0156843931396587
5.178,-0.03808529262951142
5.18,0.007606935675578703
5.182,-0.030344343515506845
5.184,-0.008717184808355257
5.186,-0.006509014962391389
5.188,0.02540113832518062
5.19,0.007237579513279444
5.192,0.012874256879642432
5.194,-0.014200010399350302
5.196,0.018858216778865372
5.198,-0.004873993985437718
5.2,0.030996127132691835
5.202,0.009787866920446572
5.204,0.0580717039110627
5.206,0.04932426986765076
5.208,0.03237646199426117
5.21,0.04419913070980369
5.212,0.039437602272714006
5.214,0.020816828976988708
5.216,0.07113452392213294
5.218,0.07207616549006282
5.22,0.040877221082319906
5.222,0.08053367790228118
5.224,0.07846709238417798
5.226,0.03396718095467474
5.228,0.043210031083897295
5.23,0.03165213472907073
5.232,0.05273598625269361
5.234,0.0689122786563718
5.236,0.08764060776098163
5.238,0.060105182277349754
5.24,0.09608269643921998
5.242,0.052242968622719245
5.244,0.008811822665940092
5.246,0.07528964299977231
5.248,0.046123526743043125
5.25,0.032454572081829475
5.252,0.06340448487166345
5.2540000000000004,0.06553935623195048
5.256,0.05704507331172997
5.258,0.09617313762374127
5.26,0.06019007388077879
5.2620000000000005,0.007455648709224383
5.264,0.05876261914721796
5.266,0.051676837639139515
5.268,0.016915930820457004
5.2700000000000005,0.002196743891529615
5.272,0.05442527530648167
5.274,-0.001605059020229685
5.276,0.00797092725235686
5.2780000000000005,0.008832147353385202
5.28,0.031249695721013715
5.282,0.0008416934696226855
5.284,-0.005693998415334571
5.2860000000000005,-0.009560241636928264
5.288,0.019864319696985763
5.29,-0.017131148093361803
5.292,-0.008066169848223316
5.2940000000000005,-0.019130738328642892
5.296,-0.014440623884535566
5.298,-0.05498280262045656
5.3,-0.026991237881530343
5.3020000000000005,-0.04364607189743024
5.304,-0.051229181550524375
5.306,-0.06689375394990904
5.308,-0.036969013251510405
5.3100000000000005,-0.11581105339270803
5.312,-0.11206394453729004
5.314,-0.09227212811557978
5.316,-0.1400742145506202
5.3180000000000005,-0.09766039958063649
5.32,-0.09800176389241252
5.322,-0.13197372043084737
5.324,-0.131613331269546
5.3260000000000005,-0.11764717019957685
5.328,-0.13320780146552863
5.33,-0.10762348314359274
5.332,-0.09399739001971964
5.3340000000000005,-0.11047799189141883
5.336,-0.11999587292561159
5.338,-0.06186896382606072
5.34,-0.07965130825446361
5.3420000000000005,-0.039250260291706744
5.344,0.004995653565852531
5.346,0.016824789713509404
5.348,0.04779823652408046
5.3500000000000005,0.0949216959265893
5.352,0.11200167628345224
5.354,0.1922982061472405
5.356,0.22970355749445426
5.3580000000000005,0.278297895115846
5.36,0.3026588847938688
5.362,0.4071961021559769
5.364,0.4328610215369221
5.3660000000000005,0.4849761725665965
5.368,0.5376070805312739
5.37,0.5731646030549795
5.372,0.6389997225255225
5.3740000000000006,0.649606442111851
5.376,0.6859556649416416
5.378,0.7694684359328364
5.38,0.793425969104445
5.382,0.8538673085103683
5.384,0.9203354178915668
5.386,0.8968061337167725
5.388,0.8762979970564291
5.39,0.9304957867259825
5.392,0.9278919381140946
5.394,0.9230498933540334
5.396,0.9473274586589818
5.398,0.927283157618551
5.4,0.9061847973862898
5.402,0.8650285134586924
5.404,0.836855637240772
5.406,0.8100181969525203
5.408,0.8055364204509207
5.41,0.7751715364603516
5.412,0.7036770626843312
5.414,0.6355803289174703
5.416,0.6234133807611262
5.418,0.5828153408257659
5.42,0.5639663494155528
5.422,0.48179999781445726
5.424,0.45548936160953485
5.426,0.383900766228645
5.428,0.3322101712821354
5.43,0.27852508476647636
5.432,0.2711622565714678
5.434,0.20087186137085666
5.436,0.16503546109911404
5.438,0.12857871829669343
5.44,0.10245239265485287
5.442,0.05753933682927216
5.444,0.040042188640401766
5.446,0.017740072776843932
5.448,0.007688495748316891
5.45,-0.0033793041265578194
5.452,-0.03572158947240071
5.454,-0.07135728962890645
5.456,-0.03333706898604282
5.458,-0.049477040495771216
5.46,-0.04982868536283949
5.462,-0.05966394526331404
5.464,-0.06003513081945096
5.466,-0.05369169308256224
5.468,-0.06447457790429335
5.47,-0.056474402882614176
5.472,-0.10877427804549171
5.474,-0.03873838257235748
5.476,-0.07510838673373663
5.478,-0.06349535801229042
5.48,-0.05612677225953264
5.482,-0.06868135300357057
5.484,-0.06008776011390321
5.486,-0.05619961829344277
5.488,-0.051667665011268
5.49,-0.1118462957652191
5.492,-0.04963853906653012
5.494,-0.04747187969614926
5.496,-0.05386039220113946
5.498,-0.04020051889206435
5.5,-0.033075625041985496
5.502,-0.03387762675629402
5.5040000000000004,-0.033693736893313224
5.506,0.00899362679477806
5.508,-0.012929259148715622
5.51,0.014957430397292193
5.5120000000000005,-0.0034038065543619545
5.514,0.004017406260819922
5.516,0.006582294671783354
5.518,0.027494238311136072
5.5200000000000005,0.047405756500041606
5.522,0.028414725326053658
5.524,0.04741073809765954
5.526,0.05110665074162444
5.5280000000000005,0.03422708560865746
5.53,0.07497077633229304
5.532,0.0761878777541431
5.534,0.04993850352714069
5.5360000000000005,0.07295512284803074
5.538,0.06258704245649746
5.54,0.09951060848838696
5.542,0.0868032435168524
5.5440000000000005,0.10558251846916908
5.546,0.10856373338699662
5.548,0.09824895969443269
5.55,0.08962262202223456
5.5520000000000005,0.1128363649463205
5.554,0.10892049752851807
5.556,0.1335353690244006
5.558,0.1245552836597377
5.5600000000000005,0.08884733075602752
5.562,0.17197407408228668
5.564,0.10071454489033312
5.566,0.14391253788543712
5.5680000000000005,0.11231155360072075
5.57,0.13584033034167048
5.572,0.14185617327791158
5.574,0.13358750261564212
5.5760000000000005,0.14146241813683078
5.578,0.11294690351508724
5.58,0.1405017370775685
5.582,0.1671839765591135
5.5840000000000005,0.16617264475057647
5.586,0.12717484582108649
5.588,0.15786167088418115
5.59,0.1639841800644143
5.5920000000000005,0.17775275682679384
5.594,0.14678571851069525
5.596,0.14669848203486058
5.598,0.11999424285592614
5.6000000000000005,0.16398426890263723
5.602,0.1329398929977264
5.604,0.14861525212564636
5.606,0.16341329291388101
5.6080000000000005,0.13942505170761801
5.61,0.14174349115160198
5.612,0.1562396877773335
5.614,0.1593950051348188
5.6160000000000005,0.13152545077336172
5.618,0.1486099509772001
5.62,0.13124352397278063
5.622,0.1311533099153864
5.6240000000000006,0.12278383856068267
5.626,0.08919665961915338
5.628,0.12500491094240357
5.63,0.08897499930188273
5.632,0.12341650512387901
5.634,0.11222787642936995
5.636,0.0718191466615332
5.638,0.10175708680144074
5.64,0.12781855799293484
5.642,0.04385951445733177
5.644,0.06757124965306163
5.646,0.09344668922873006
5.648,0.07029448352720082
5.65,0.04144895178604247
5.652,0.03856624850056777
5.654,0.045172776187815206
5.656,-0.04247032852599447
5.658,-0.019357954148427177
5.66,-0.009375238120395202
5.662,0.00682299170433643
5.664,-0.014283748918899997
5.666,-0.04633644551524667
5.668,0.003558762608344812
5.67,-0.036881030840291026
5.672,-0.03278923803343493
5.674,-0.07368611310352186
5.676,-0.06352070022915947
5.678,-0.06929384518187201
5.68,-0.06705801159621391
5.682,-0.07048326443352915
5.684,-0.0809506744820128
5.686,-0.13475911407552837
5.688,-0.12771506033533098
5.69,-0.1304287286267431
5.692,-0.13974881365016018
5.694,-0.15005996769479624
5.696,-0.13305109093161704
5.698,-0.16221590682751524
5.7,-0.16511009901978255
5.702,-0.17887425921907396
5.704,-0.1648565789315965
5.706,-0.1888210495487669
5.708,-0.14600225166636044
5.71,-0.17599176323667678
5.712,-0.1411623818452571
5.714,-0.20792381143427097
5.716,-0.15150465672787153
5.718,-0.15402638567772287
5.72,-0.1856923906435788
5.722,-0.19516043528241334
5.724,-0.2067814544940272
5.726,-0.18549283876189573
5.728,-0.18825396424220722
5.73,-0.20582584160716108
5.732,-0.20686787275930235
5.734,-0.19746669944559747
5.736,-0.1490541944541327
5.738,-0.18632863756269977
5.74,-0.22170672292687954
5.742,-0.17835591355144254
5.744,-0.15545826180907377
5.746,-0.19719076919019402
5.748,-0.17741463482251996
5.75,-0.18787763333223528
5.752,-0.19187332338801733
5.7540000000000004,-0.18907767111297089
5.756,-0.19229104496726568
5.758,-0.13328462023519005
5.76,-0.1649302012710786
5.7620000000000005,-0.1842991012115906
5.764,-0.1581530403984408
5.766,-0.1551241357937503
5.768,-0.1604865120235328
5.7700000000000005,-0.16675856050567017
5.772,-0.16097564997440708
5.774,-0.15236999640896698
5.776,-0.131797176062243
5.7780000000000005,-0.12829127869658222
5.78,-0.16033796740130996
5.782,-0.15337542938739435
5.784,-0.11286733773285886
5.7860000000000005,-0.1265327180628648
5.788,-0.17169880053134162
5.79,-0.1349257124745886
5.792,-0.1480153394897645
5.7940000000000005,-0.14306497661087977
5.796,-0.10892224658882599
5.798,-0.08448132091775806
5.8,-0.12620164757753638
5.8020000000000005,-0.12485800266343776
5.804,-0.14072230038415356
5.806,-0.0967298328939222
5.808,-0.13691083736221515
5.8100000000000005,-0.11235970533180951
5.812,-0.0919406356784484
5.814,-0.07520156606847417
5.816,-0.11903240775340376
5.8180000000000005,-0.08991808817107992
5.82,-0.10459176612694296
5.822,-0.07528374870353673
5.824,-0.07840859901413219
5.8260000000000005,-0.06458618220517469
5.828,-0.05453585623073261
5.83,-0.08053015649273418
5.832,-0.08558311118041953
5.8340000000000005,-0.08782487267389398
5.836,-0.057433945157134875
5.838,-0.047023726667029524
5.84,-0.06852103094905282
5.8420000000000005,-0.03823194042937257
5.844,-0.0634305202234762
5.846,-0.07599769480749291
5.848,-0.03771536761588572
5.8500000000000005,-0.04412568567066366
5.852,-0.05585690057296435
5.854,-0.027897013483621686
5.856,-0.07340529201655079
5.8580000000000005,-0.04231799995195872
5.86,-0.04864712524865078
5.862,-0.03340798932243087
5.864,-0.0388074853035851
5.8660000000000005,-0.024985798010746834
5.868,-0.04959847047755558
5.87,-0.05638787478271418
5.872,0.002159748790501929
5.8740000000000006,0.0001729390342346277
5.876,-0.03924852546568501
5.878,-0.01679649162879413
5.88,-0.048524056131725266
5.882000000000001,-0.054867730146821156
5.884,-0.04765076952963467
5.886,-0.0766366640559839
5.888,-0.009471439326867791
5.89,-0.014834932961630904
5.892,-0.013198553935772423
5.894,-0.03165114528220897
5.896,-0.029937951495530468
5.898,-0.054103082882438584
5.9,-0.015028968013864214
5.902,-0.018410392229549523
5.904,-0.03210085085772145
5.906,-0.011087024251446578
5.908,-0.03224871173153682
5.91,0.002320304639599117
5.912,0.0032936137843356987
5.914,-0.020030281205392103
5.916,-0.031010851560910293
5.918,0.02310760073320916
5.92,0.0007212934537497123
5.922,-0.02954109068172502
5.924,-0.00852725046258863
5.926,-0.0018669093238720485
5.928,-0.0006909628584981974
5.93,-0.02087900583060576
5.932,0.023312947890532787
5.934,0.004164963480752333
5.936,-0.0218816970718779
5.938,-0.023451514912271917
5.94,-0.008869296199986427
5.942,-0.02600005081735945
5.944,0.015776082742853196
5.946,-0.013233273658726834
5.948,0.013493550431073524
5.95,-0.0014207579707455826
5.952,0.0171152890544016
5.954,0.012231807515285676
5.956,-0.00961016013577104
5.958,-0.029442141186533932
5.96,0.024708202248228797
5.962,-0.008172022321058528
5.964,-0.024909890343150134
5.966,0.026989938650183194
5.968,0.021055938440609365
5.97,-0.018928979412075282
5.972,-0.02222687299797408
5.974,0.016503590432825083
5.976,-0.02232573919104514
5.978,0.008867640043206813
5.98,0.017415124910019897
5.982,0.0011034300599172381
5.984,0.015974473831284024
5.986,0.01346348460715357
5.988,-0.012674461258360083
5.99,0.018222260534107554
5.992,-0.012357227324789184
5.994,-0.007425746811746957
5.996,-0.0064615052171974096
5.998,0.020088324605096162
6.0,0.016451320944705118
6.002,0.02559189456402889
6.0040000000000004,-0.002083634701183147
6.006,0.001474948693644266
6.008,0.06077958406706313
6.01,0.011130461276550587
6.0120000000000005,0.00410541818931888
6.014,-0.002661031334951755
6.016,-0.010832126212401021
6.018,0.03888642273182605
6.0200000000000005,-0.0054857367074893654
6.022,0.0005952546380222721
6.024,0.02062316002508812
6.026,-0.010260286453248127
6.0280000000000005,0.030681996123301573
6.03,0.027621414963820264
6.032,0.0064906096154001315
6.034,0.022104285396432784
6.0360000000000005,0.06323675951772773
6.038,0.009977235756007424
6.04,0.03211060734020645
6.042,0.03525574861103287
6.0440000000000005,-0.011706759170705933
6.046,0.04726945716769773
6.048,0.03590727556537458
6.05,0.04559634262416358
6.0520000000000005,0.04648660299550103
6.054,0.04460062469730813
6.056,0.08571486787919752
6.058,0.04027929846588189
6.0600000000000005,0.04512209057433639
6.062,0.07266149596240981
6.064,0.06223592410009122
6.066,0.04493406566200448
6.0680000000000005,0.06522408260926178
6.07,0.0740617939810517
6.072,0.07631202341596965
6.074,0.08763366881132502
6.0760000000000005,0.09615530749240761
6.078,0.11545828738742042
6.08,0.12274731153779897
6.082,0.11307676201303712
6.0840000000000005,0.09022350293126452
6.086,0.09522211356558512
6.088,0.12260006558410108
6.09,0.1076692589805315
6.0920000000000005,0.10150336376406403
6.094,0.09222356583546644
6.096,0.1079982304886411
6.098,0.10911849144715265
6.1000000000000005,0.1014507279479039
6.102,0.08348651675521829
6.104,0.11092437089606276
6.106,0.12203707684929865
6.1080000000000005,0.110646303257325
6.11,0.13531648884505482
6.112,0.08476843291042575
6.114,0.10941841213020362
6.1160000000000005,0.09594269005050124
6.118,0.08642957129284343
6.12,0.10026469994941054
6.122,0.11451931198281193
6.1240000000000006,0.10310981105133138
6.126,0.10966397424326765
6.128,0.12360242096856763
6.13,0.11093954394872177
6.132000000000001,0.0710352935167331
6.134,0.09614365693149765
6.136,0.11503128284021687
6.138,0.08740864999323275
6.140000000000001,0.0688474797275361
6.142,0.04936882540259033
6.144,0.029735879529453318
6.146,0.07039294391862935
6.148,0.04367505614970188
6.15,0.044428150783944985
6.152,0.03853021755151549
6.154,0.0585594941209465
6.156,-0.012271846563822058
6.158,0.041742206053137255
6.16,-0.020077597088680083
6.162,0.05433521369073641
6.164,-0.009128698698455156
6.166,0.019414868002704363
6.168,-0.0064429973392597095
6.17,-0.008350883705537243
6.172,-0.007049940125078251
6.174,-0.030737108424975762
6.176,-0.03727547779339073
6.178,-0.056472518035406975
6.18,-0.0401998995717785
6.182,-0.05780504781483464
6.184,-0.07583805285095487
6.186,-0.0627654608407249
6.188,-0.020217840978086925
6.19,-0.05423959766831622
6.192,-0.023920351007481917
6.194,0.00425336116798123
6.196,0.013982750224171142
6.198,0.013144542291770055
6.2,0.02320578839092209
6.202,0.07110807719260762
6.204,0.09803971661063415
6.206,0.12494728304882745
6.208,0.16388080628921334
6.21,0.19410841436107595
6.212,0.2622790685564498
6.214,0.3530173710731969
6.216,0.37059835291473986
6.218,0.4432769072094453
6.22,0.4782932723402039
6.222,0.5349263686959951
6.224,0.5905242652599058
6.226,0.6349951467969728
6.228,0.6930161669062168
6.23,0.7175178011943655
6.232,0.7630900247400636
6.234,0.8305122079819126
6.236,0.8334180852866643
6.238,0.8709420188800201
6.24,0.9306540464007026
6.242,0.9222003690715778
6.244,0.9792595354759329
6.246,0.9916718461212302
6.248,1.0282643011969497
6.25,1.0373914735843257
6.252,0.9983247430087719
6.2540000000000004,1.0174030496992845
6.256,0.9867826196181602
6.258,0.9736135491655775
6.26,0.9373996317255031
6.2620000000000005,0.9240180147159609
6.264,0.9314924789494236
6.266,0.8945696225614208
6.268,0.8209067287510545
6.2700000000000005,0.7767289513597478
6.272,0.7434750573086228
6.274,0.708026530555124
6.276,0.6372531154620608
6.2780000000000005,0.5754056594048874
6.28,0.5433698442659501
6.282,0.440356785160765
6.284,0.48022520348364534
6.2860000000000005,0.4123406647150861
6.288,0.34333374236036523
6.29,0.31271839604418233
6.292,0.29185388909864257
6.2940000000000005,0.21091960623563688
6.296,0.2174727940318135
6.298,0.19058796937765043
6.3,0.14811081665952974
6.3020000000000005,0.1254677467032795
6.304,0.10306182196510458
6.306,0.10681170390407758
6.308,0.07411286695017322
6.3100000000000005,0.02601538231187938
6.312,0.07150468982198661
6.314,0.0350502746721752
6.316,0.02945383163639377
6.3180000000000005,0.04116959095483402
6.32,0.02990060407059031
6.322,-0.004787617242299293
6.324,0.04733051251601668
6.3260000000000005,0.012082349322748567
6.328,0.019839852606838102
6.33,0.027422622410248673
6.332,0.021026501936892955
6.3340000000000005,0.007111312462990377
6.336,0.02869465258752262
6.338,0.0783996269920736
6.34,0.046018680698222646
6.3420000000000005,0.0174699665977291
6.344,0.009551592708464524
6.346,0.036249430601099315
6.348,0.057411875218418874
6.3500000000000005,0.05894886515741458
6.352,0.046202617776741284
6.354,0.054333274123459854
6.356,0.06414806617202548
6.3580000000000005,0.06273504212630818
6.36,0.093099411220734
6.362,0.10061880469214557
6.364,0.09334406578002821
6.3660000000000005,0.0872640751472854
6.368,0.08833641995762029
6.37,0.095324513051782
6.372,0.11963272754147447
6.3740000000000006,0.1280955694582772
6.376,0.10132785672371357
6.378,0.1618465759904647
6.38,0.1391557168932691
6.382000000000001,0.12179980447651488
6.384,0.10874246600213097
6.386,0.16427359096938127
6.388,0.1542379704885885
6.390000000000001,0.1753529394908891
6.392,0.18606302967726085
6.394,0.16897026118921418
6.396,0.19330288007354346
6.398000000000001,0.18431603825326595
6.4,1.5
6.402,0.1873664706963464
6.404,0.15610826614778373
6.406,0.2525016930644489
6.408,0.19501172749572432
6.41,0.19143033070130092
6.412,0.2027313637994306
6.414,0.2229342590180537
6.416,0.23020391713784233
6.418,0.20542094001156339
6.42,0.26088210293599456
6.422,0.24586570065891208
6.424,0.23700787070609153
6.426,0.20161912684126748
6.428,0.2347378549701263
6.43,0.21319594697719857
6.432,0.2605336526961414
6.434,0.2596105310488635
6.436,0.1912858686907181
6.438,0.2408587412697778
6.44,0.2330436308822697
6.442,0.22185974217236087
6.444,0.23067883764173183
6.446,0.28517914363876484
6.448,0.20670290582780432
6.45,0.2075533514055997
6.452,0.23557188604640214
6.454,0.26487222186953785
6.456,0.2585367929999705
6.458,0.21707593968700853
6.46,0.2805545947897322
6.462,0.22870359254736528
6.464,0.23502522545824756
6.466,0.21657437874941593
6.468,0.23463001806364198
6.47,0.21143293358092446
6.472,0.2224143817371805
6.474,0.22744975611969176
6.476,0.24785955652345712
6.478,0.2230007607800445
6.48,0.21353578350082938
6.482,0.20893758462625214
6.484,0.19537155021025157
6.486,0.20077339923711668
6.488,0.1927822441381245
6.49,0.17480044750458537
6.492,0.18085565974659504
6.494,0.16870847408040462
6.496,0.17844857155891375
6.498,0.16085855437793034
6.5,0.15574336944619394
6.502,0.18048623473798958
6.5040000000000004,0.14967808604327756
6.506,0.18079345817477827
6.508,0.13546327855691775
6.51,0.12962654299899345
6.5120000000000005,0.10439792588396374
6.514,0.11829266216937132
6.516,0.060457521578447936
6.518,0.09251512652659907
6.5200000000000005,0.08814811382118017
6.522,0.08283523094376422
6.524,0.03452818841608169
6.526,0.04416164809725395
6.5280000000000005,0.061238426849808084
6.53,0.03848600724833533
6.532,0.03289487313501369
6.534,0.004020489475071901
6.5360000000000005,0.00797706892640325
6.538,-0.001677270674673978
6.54,0.01362452425089583
6.542,-0.012135400864570503
6.5440000000000005,0.0019150902067749664
6.546,-0.05757098072573863
6.548,-0.04466985990440567
6.55,-0.0645190562905317
6.5520000000000005,-0.021932449754857572
6.554,-0.06274708364821797
6.556,-0.059948314345559015
6.558,-0.08994252564331522
6.5600000000000005,-0.09709114441389646
6.562,-0.08599427380827442
6.564,-0.06792137736404545
6.566,-0.08586244585371243
6.5680000000000005,-0.10956122301660198
6.57,-0.10296980897853261
6.572,-0.08036363351106841
6.574,-0.08992897591623347
6.5760000000000005,-0.11641892572756685
6.578,-0.08595073360006197
6.58,-0.09008000937622543
6.582,-0.09182023724873589
6.5840000000000005,-0.07555326683772473
6.586,-0.07941281337440362
6.588,-0.09155140367849984
6.59,-0.1296547753805483
6.5920000000000005,-0.12399185258882245
6.594,-0.0856049389018459
6.596,-0.09340575490996367
6.598,-0.10639289841732055
6.6000000000000005,-0.09394890154454288
6.602,-0.13631731374332845
6.604,-0.11481737374337177
6.606,-0.1262895038844608
6.6080000000000005,-0.11429746086936751
6.61,-0.10973257941645495
6.612,-0.07425645459244108
6.614,-0.10176871260678658
6.6160000000000005,-0.12974465206385608
6.618,-0.09113407036438442
6.62,-0.10361773190068482
6.622,-0.10246337758441723
6.6240000000000006,-0.07738391092537411
6.626,-0.07630547137138005
6.628,-0.11966290558550124
6.63,-0.05529157193555574
6.632000000000001,-0.07980968364440659
6.634,-0.08932242542555034
6.636,-0.09800493243419621
6.638,-0.05098190701347882
6.640000000000001,-0.06230828112172672
6.642,-0.09456624044424855
6.644,-0.05758864460060818
6.646,-0.08651018406948507
6.648000000000001,-0.04113513177484121
6.65,-0.07288587675396577
6.652,-0.06424740897143993
6.654,-0.013325257732129059
6.656000000000001,-0.03292438676921031
6.658,-0.05952685952329592
6.66,-0.02736312056066921
6.662,-0.01605941034956003
6.664,-0.03154709207456081
6.666,-0.024404130903380596
6.668,-0.02142701540511592
6.67,-0.01705802956396501
6.672,-0.015489845345791897
6.674,-0.03827066051067356
6.676,-0.022165539441850228
6.678,-0.06839956260713487
6.68,0.013972882746322135
6.682,-0.036115513730002866
6.684,0.0034559718467269823
6.686,-0.02609262344730508
6.688,-0.013091124096994339
6.69,0.004798494396231118
6.692,0.010908900466862756
6.694,-0.00485480495056155
6.696,-0.026278370198722763
6.698,0.03975945076004283
6.7,0.00595883545960562
6.702,-0.030367290999620086
6.704,0.018689325859061228
6.706,0.04343184537478691
6.708,0.0026881527289388044
6.71,0.024269232191593555
6.712,0.039347040990351474
6.714,0.02547247319340969
6.716,0.040703181723468006
6.718,0.027039958720418828
6.72,0.028589124930764737
6.722,0.04670440098556586
6.724,0.02741613701226968
6.726,-0.005490236558289877
6.728,0.046207234505921624
6.73,0.07691700718740326
6.732,0.02025076629152192
6.734,0.058022224852558084
6.736,0.04429792102122855
6.738,-0.0002468856884110448
6.74,0.054083194041609925
6.742,0.02202799553149383
6.744,0.03155456557676653
6.746,0.03907225048352542
6.748,0.024852681750607526
6.75,0.05359074899111711
6.752,0.014365360374852266
6.7540000000000004,0.03807486337512011
6.756,0.023202808258767676
6.758,0.051853426079313446
6.76,0.02256528138047623
6.7620000000000005,0.03267163545227626
6.764,0.06364438849305752
6.766,0.012794408079846935
6.768,0.01426659399917447
6.7700000000000005,0.03578497870504369
6.772,0.033894109676305656
6.774,0.03165204686336646
6.776,0.02434761638710878
6.7780000000000005,0.036036638011639074
6.78,0.0067598880321313275
6.782,0.06448192437668013
6.784,0.010708431570677508
6.7860000000000005,0.02264978214121347
6.788,0.03861012418926464
6.79,0.052672884399617155
6.792,0.031247749926352705
6.7940000000000005,0.030904538358885816
6.796,0.06099454185590962
6.798,0.022578354000152363
6.8,0.023402363950045288
6.8020000000000005,0.04769676561232134
6.804,0.059933348867577015
6.806,0.030888933801612343
6.808,0.014223903795131502
6.8100000000000005,0.01852025772082755
6.812,0.030629638711148943
6.814,0.0315506576607633
6.816,0.020256124794303876
6.8180000000000005,0.03027258072069152
6.82,0.024296125821134905
6.822,0.010787990595757161
6.824,0.010737683793282745
6.8260000000000005,-0.01786132217540314
6.828,0.02749405988600654
6.83,0.02003907838144954
6.832,0.025394530926592374
6.8340000000000005,0.02931995659611182
6.836,-0.0017319114782634979
6.838,0.023820778602550677
6.84,0.03674306979176759
6.8420000000000005,0.010009786713911738
6.844,0.04159224373260976
6.846,0.05100513673893123
6.848,0.033122515749860956
6.8500000000000005,0.034919827358831645
6.852,0.008158270182965664
6.854,0.0005266789787460826
6.856,-0.006659077009487531
6.8580000000000005,0.02261463922952387
6.86,0.062240141259911216
6.862,0.03849441549004002
6.864,0.008261026899398513
6.8660000000000005,0.03386271641791723
6.868,0.01896771332093787
6.87,0.05764141965687785
6.872,0.004639483790008391
6.8740000000000006,0.03758096475201251
6.876,0.014286528672544237
6.878,-0.007183869748233072
6.88,0.04752729046782517
6.882000000000001,0.00037264049282434084
6.884,0.05085686517496053
6.886,0.047617024378268605
6.888,0.07489168062908164
6.890000000000001,0.025905845722330553
6.892,0.013046017804782213
6.894,0.06630072686242698
6.896,0.03296665493391246
6.898000000000001,0.044676646774653606
6.9,0.07597694263232746
6.902,0.04672042503143016
6.904,0.06638927943859599
6.906000000000001,0.07282840433078414
6.908,0.05123235777446173
6.91,0.06796042413106086
6.912,0.028305059043400475
6.914,0.047592381538758236
6.916,0.056815155186884424
6.918,0.09842018939316083
6.92,0.045579544835115976
6.922,0.05694694095261585
6.924,0.06779838322782866
6.926,0.07920815269515649
6.928,0.06937117660988251
6.93,0.05974953145455075
6.932,0.07762671290243686
6.934,0.09957636043338827
6.936,0.09076693752758658
6.938,0.07038209450055109
6.94,0.12554732678716735
6.942,0.1056508196105545
6.944,0.10582235819970735
6.946,0.1291249559985774
6.948,0.09744820297761006
6.95,0.11732690151992466
6.952,0.07726761311618487
6.954,0.14264675508989216
6.956,0.0908530207228329
6.958,0.12409814321552114
6.96,0.09845539476924373
6.962,0.08378206068481221
6.964,0.08849971167106588
6.966,0.06503964632126863
6.968,0.12706814739665023
6.97,0.06312693235310024
6.972,0.0870221957777496
6.974,0.09690817122083367
6.976,0.10669945858354977
6.978,0.13584022447212513
6.98,0.10522782564330393
6.982,0.08320265606116951
6.984,0.11250920970529339
6.986,0.08975889582085869
6.988,0.027090067547258095
6.99,0.044251590937292765
6.992,0.06143280793749641
6.994,0.01150329415073549
6.996,0.05877535216494491
6.998,0.015028125737015549
7.0,0.047107418105143496
7.002,0.015346303718891043
7.0040000000000004,0.03678721077411065
7.006,0.020353460034896853
7.008,0.04352945484379621
7.01,0.015583691463289018
7.0120000000000005,0.010696041302655739
7.014,-0.023799764592262195
7.016,-0.019108440450098064
7.018,0.02762778642111107
7.0200000000000005,-0.0030750355579567974
7.022,-0.03347464688555508
7.024,-0.024416640897767093
7.026,-0.028490836130754323
7.0280000000000005,-0.053371820862124164
7.03,-0.07140256281319954
7.032,-0.07973049698657102
7.034,-0.06987598686312207
7.0360000000000005,-0.0760762510992111
7.038,-0.06449966359873242
7.04,-0.07921412086589431
7.042,-0.07240970539881453
7.0440000000000005,-0.09541502890173374
7.046,-0.06292528750921661
7.048,-0.08497310670097759
7.05,-0.04973621046229224
7.0520000000000005,-0.04796041904131125
7.054,-0.048789701010902506
7.056,-0.009137393843839946
7.058,0.012829178989453013
7.0600000000000005,0.04480122953210756
7.062,0.08260067615020246
7.064,0.10509959053193504
7.066,0.15912721051585849
7.0680000000000005,0.17944702556672248
7.07,0.230100996608802
7.072,0.297650807359717
7.074,0.3716573222087196
7.0760000000000005,0.41851908927978015
7.078,0.4432400718545231
7.08,0.49857467280897555
7.082,0.5661029886826142
7.0840000000000005,0.6002325201504215
7.086,0.6558123960994326
7.088,0.6939134328994293
7.09,0.7209247443685032
7.0920000000000005,0.7968814822888054
7.094,0.8478375803785109
7.096,0.8450329060636406
7.098,0.8773730936582177
7.1000000000000005,0.9264977123151716
7.102,0.9259827324138468
7.104,0.9673591584570957
7.106,0.9642899449683534
7.1080000000000005,0.9472188144716951
7.11,0.9673597885506645
7.112,0.9506416882122617
7.114,0.9314328117412626
7.1160000000000005,0.9166899621914334
7.118,0.8834761937680486
7.12,0.838316520087014
7.122,0.8088927129792447
7.1240000000000006,0.7907294230007569
7.126,0.7098074409603705
7.128,0.7191807517599668
7.13,0.6332207020719071
7.132000000000001,0.633693570804165
7.134,0.5507375679764888
7.136,0.5108186879150227
7.138,0.4485412564294397
7.140000000000001,0.4311976847845887
7.142,0.3992484198358834
7.144,0.3411565930467782
7.146,0.2900006439642622
7.148000000000001,0.23323354699948254
7.15,0.20673487504936117
7.152,0.1555784893893255
7.154,0.1290791877671516
7.156000000000001,0.0842670382048839
7.158,0.11208132332198666
7.16,0.04914951567791148
7.162,0.062244755404454094
7.164000000000001,0.00920178838048951
7.166,-0.0027704942397620974
7.168,0.003360975263274347
7.17,-0.010381852108162287
7.172,-0.009440156858286156
7.174,-0.02632659647873315
7.176,-0.04532448224059119
7.178,-0.03562973179441667
7.18,-0.08204857949437733
7.182,-0.027974315667874575
7.184,-0.07340630264935288
7.186,-0.03341669963589044
7.188,-0.01641384582725899
7.19,-0.08331731782296076
7.192,-0.03675072673676835
7.194,-0.03466833790590493
7.196,-0.03442823135779761
7.198,-0.042703874742240945
7.2,-0.07005946123648035
7.202,-0.07778355252969565
7.204,-0.07026167938140637
7.206,-0.04499702917503034
7.208,-0.04695466288545207
7.21,-0.03416013935758823
7.212,-0.04665129159365519
7.214,0.032033363861427425
7.216,-0.04254189069324985
7.218,0.00836920172452614
7.22,-0.01904433245211451
7.222,-0.009246453096685134
7.224,0.02408244998846199
7.226,-0.008565102682830089
7.228,0.026778778708853042
7.23,0.03258182667424435
7.232,0.04475762681115304
7.234,0.04519691309569115
7.236,0.0424880801901328
7.238,0.04731081397564853
7.24,0.046081236024889616
7.242,0.07413619810607616
7.244,0.06125984975809595
7.246,0.08079583727547199
7.248,0.06809170445253394
7.25,0.09354647588342378
7.252,0.09793544323039272
7.2540000000000004,0.12431627487689516
7.256,0.11776977626324958
7.258,0.07617653469468114
7.26,0.0925162892533834
7.2620000000000005,0.09745650908492716
7.264,0.08252672191120182
7.266,0.11444273006392347
7.268,0.12980760123740923
7.2700000000000005,0.16244133625079987
7.272,0.12794406627359303
7.274,0.15206492240511169
7.276,0.11408488514744733
7.2780000000000005,0.12773454641273627
7.28,0.13836684680398725
7.282,0.1114078267063524
7.284,0.13253845363385666
7.2860000000000005,0.1493621803727427
7.288,0.12901667972761854
7.29,0.16444404807112123
7.292,0.11501093106401003
7.2940000000000005,0.1841745135509384
7.296,0.16998372100958056
7.298,0.14183296764095815
7.3,0.14954329057335508
7.3020000000000005,0.15351423641282205
7.304,0.1611247443109013
7.306,0.16509485573350224
7.308,0.16849848742704898
7.3100000000000005,0.17252937507522692
7.312,0.15258647764273492
7.314,0.1710102904309372
7.316,0.14357464170898365
7.3180000000000005,0.15926200323742007
7.32,0.12010029374029049
7.322,0.13351179127125012
7.324,0.14930637627713395
7.3260000000000005,0.15137608286134951
7.328,0.13435695393928906
7.33,0.1168428176354594
7.332,0.09651413194491185
7.3340000000000005,0.12576666376140733
7.336,0.11931976753300769
7.338,0.12544185568276356
7.34,0.11961257585214238
7.3420000000000005,0.10401882611382393
7.344,0.09508351828762303
7.346,0.08638318006951874
7.348,0.07250648786094882
7.3500000000000005,0.08961892661544454
7.352,0.08089779202853853
7.354,0.07699943945294896
7.356,0.058467883003502086
7.3580000000000005,0.10281289448065742
7.36,0.057021371395824104
7.362,0.057759605010921033
7.364,0.04480049386686483
7.3660000000000005,0.048320814167961655
7.368,0.021396149312543362
7.37,0.013063147500735922
7.372,0.00872319930604884
7.3740000000000006,-0.0036663971996839656
7.376,-0.004437222932331716
7.378,-0.02742305781521872
7.38,-0.03383682243946736
7.382000000000001,0.010552677408418039
7.384,-0.02544863770585848
7.386,-0.060239139220201354
7.388,-0.07550487154057986
7.390000000000001,-0.06223323299446041
7.392,-0.08646612235198123
7.394,-0.0560466954265149
7.396,-0.09221748331892526
7.398000000000001,-0.07995609768396392
7.4,-0.12832222589243655
7.402,-0.11734684079777483
7.404,-0.12004536906791449
7.406000000000001,-0.1403868343706124
7.408,-0.15073497387255502
7.41,-0.15312991240852505
7.412,-0.15471950550472308
7.414000000000001,-0.16792603186464997
7.416,-0.13633445901627633
7.418,-0.1386056484355556
7.42,-0.16463317945666195
7.422000000000001,-0.1479128311051488
7.424,-0.16988454217210258
7.426,-0.20488506864537276
7.428,-0.17686260503627232
7.43,-0.24733279868951077
7.432,-0.1880772020864299
7.434,-0.21302186516242
7.436,-0.1590955162130568
7.438,-0.1671051337801147
7.44,-0.19644965729641475
7.442,-0.16695604857763627
7.444,-0.20664074706213192
7.446,-0.2309157255273127
7.448,-0.18195877819293105
7.45,-0.22066314716292723
7.452,-0.1961439067275762
7.454,-0.1989019970281651
7.456,-0.2142736490270966
7.458,-0.19680089864220365
7.46,-0.21489784370514953
7.462,-0.19990461982747854
7.464,-0.18232442084559725
7.466,-0.1754152923252783
7.468,-0.20640791718227156
7.47,-0.19541333933273783
7.472,-0.1862100150966589
7.474,-0.18528697580246756
7.476,-0.17731982469493324
7.478,-0.19828573433247754
7.48,-0.1889095117236183
7.482,-0.14503015691828536
7.484,-0.17515400880354381
7.486,-0.1872003008478187
7.488,-0.1725575055743072
7.49,-0.18935429803343667
7.492,-0.15933561156641096
7.494,-0.18567526583971855
7.496,-0.17338666963831967
7.498,-0.1433292737385621
7.5,-0.21465194649085845
7.502,-0.1730158667018473
7.5040000000000004,-0.1467551211570413
7.506,-0.1621669151468214
7.508,-0.13162074844875865
7.51,-0.1283769559220811
7.5120000000000005,-0.130375523248118
7.514,-0.13214094350832029
7.516,-0.14393819014901332
7.518,-0.19571518449936293
7.5200000000000005,-0.12841697970902108
7.522,-0.0991391723064892
7.524,-0.11767990740911748
7.526,-0.1056038051192251
7.5280000000000005,-0.16042697551043633
7.53,-0.11609566136221232
7.532,-0.12657505796440988
7.534,-0.10472433748469594
7.5360000000000005,-0.11199699910461369
7.538,-0.12690949286457906
7.54,-0.11394815828076807
7.542,-0.10894073966317497
7.5440000000000005,-0.0996554091383379
7.546,-0.12038460519659841
7.548,-0.08471164461445602
7.55,-0.06881594277726663
7.5520000000000005,-0.08431816235109046
7.554,-0.0928863709531102
7.556,-0.08924025326233884
7.558,-0.08046376394096219
7.5600000000000005,-0.04093072587443376
7.562,-0.0891314419535304
7.564,-0.08302402867550782
7.566,-0.06829142245759072
7.5680000000000005,-0.10141798682028712
7.57,-0.08467103942964258
7.572,-0.06221617152567907
7.574,-0.026324622421452483
7.5760000000000005,-0.05632650697007943
7.578,-0.09480909106758732
7.58,-0.06284543172288279
7.582,-0.04710027108081789
7.5840000000000005,-0.08302912648169089
7.586,-0.031115606550923693
7.588,-0.009339873785162305
7.59,-0.06783118412352365
7.5920000000000005,-0.03243280249201112
7.594,-0.05833283129041584
7.596,-0.07670111474744219
7.598,-0.05277130939381404
7.6000000000000005,-0.057495493885516336
7.602,-0.059818490975019206
7.604,-0.07148797792752408
7.606,-0.032187780801357944
7.6080000000000005,-0.08256832803856883
7.61,-0.045114889987497
7.612,-0.0427798246603146
7.614,-0.05132207984840243
7.6160000000000005,-0.08093978676045434
7.618,-0.06720284616698634
7.62,-0.035461866632957396
7.622,-0.06986525676938277
7.6240000000000006,-0.05374019888511648
7.626,-0.05761986611796701
7.628,-0.0448006940631598
7.63,-0.06543023462032929
7.632000000000001,-0.04816910701541163
7.634,-0.0184055020236729
7.636,-0.07401826784362948
7.638,-0.05305304276247001
7.640000000000001,-0.043850471304026514
7.642,-0.03833948309278188
7.644,-0.014732366501235194
7.646,-0.03334220023384474
7.648000000000001,-0.0533515952153587
7.65,-0.04409884765779006
7.652,-0.04090143303142371
7.654,-0.03390844558647517
7.656000000000001,-0.0688719289354139
7.658,-0.05825163513793174
7.66,-0.0545301731072508
7.662,-0.0622478655339919
7.664000000000001,-0.06852098767165317
7.666,-0.0025773965804422377
7.668,0.003079263907598417
7.67,-0.0867218237894177
7.672000000000001,-0.059438219725265945
7.674,-0.03405033819714042
7.676,-0.0338347968622817
7.678,-0.00024399989766649477
7.68,0.007892959712400754
7.682,-0.003084440063561819
7.684,-0.04690735786138601
7.686,-0.024333444899149244
7.688,-0.048968161039746896
7.69,-0.04835410553178983
7.692,-0.015472196473260246
7.694,-0.03382142973892357
7.696,-0.048920904713272914
7.698,-0.03573746350549633
7.7,-0.05464736922382673
7.702,-0.025942419422582904
7.704,-0.015183537852737577
7.706,-0.060154269122424116
7.708,-0.0046576943192816475
7.71,-0.042697308528059315
7.712,-0.005145426752804495
7.714,0.0021886540334522856
7.716,-0.07118944215091114
7.718,-0.03374685892617405
7.72,-0.019604227879174912
7.722,-0.02083186616575554
7.724,-0.042079794776231944
7.726,-0.03594118523588584
7.728,-0.04516075865228653
7.73,-0.04413785527646241
7.732,-0.05102341984678094
7.734,-0.03965566564502182
7.736,0.0137751727151032
7.738,-0.007597698108754878
7.74,-0.04379795798015898
7.742,-0.01057014400529592
7.744,0.01940019366706595
7.746,-0.02517823142681952
7.748,-0.0155793227760971
7.75,-0.041832830155318274
7.752,-0.005379486330004998
7.7540000000000004,-0.009082256744564428
7.756,-0.02041820410661655
7.758,-0.021813020158115884
7.76,-0.015723676888782265
7.7620000000000005,0.0018776917060274873
7.764,-0.007939943641041003
7.766,-0.00797392047173167
7.768,0.027293911441792953
7.7700000000000005,0.012733688999395913
7.772,0.006508803463352447
7.774,0.021862303027714008
7.776,0.017813408250858753
7.7780000000000005,0.027001552621709196
7.78,0.02873026146051845
7.782,0.02447391979423267
7.784,0.028862232510387865
7.7860000000000005,0.05700902360306248
7.788,0.016279333391173226
7.79,0.06249504406753872
7.792,0.07680159544058238
7.7940000000000005,0.039807422430212853
7.796,0.01931181724593045
7.798,0.05672792338726785
7.8,0.04404763370469637
7.8020000000000005,0.07290066197639186
7.804,0.03365921027545059
7.806,0.08255018008970469
7.808,0.07228598753287332
7.8100000000000005,0.08294784782880216
7.812,0.03342557951753661
7.814,0.04422698326155599
7.816,0.10340720228626911
7.8180000000000005,0.06541366211494504
7.82,0.05116974032373867
7.822,0.08402722214592645
7.824,0.041193070668269854
7.8260000000000005,0.05898408386820397
7.828,0.08116431593425431
7.83,0.0632892543988037
7.832,0.05926930701011199
7.8340000000000005,0.06026004770192343
7.836,0.05253370660293076
7.838,0.0626118923850065
7.84,0.09841505360798718
7.8420000000000005,0.08503467564457448
7.844,0.07388493113764645
7.846,0.019416862607026998
7.848,0.06652170211301037
7.8500000000000005,0.02970743063030957
7.852,0.04901643593960109
7.854,0.03830521692201864
7.856,0.04895127739030666
7.8580000000000005,0.043462758235496265
7.86,-0.0006642640786281989
7.862,0.028863604034457903
7.864,-0.0025303715772847235
7.8660000000000005,-0.0309861306828095
7.868,-0.008645307425017706
7.87,0.0007145973452985024
7.872,-0.010906111263104618
7.8740000000000006,-0.025382181296473783
7.876,-0.035020601955514256
7.878,-0.03565850106181907
7.88,-0.030309092793447744
7.882000000000001,-0.032139539093376815
7.884,-0.05714236082667623
7.886,-0.0785854347331279
7.888,-0.061978136720858105
7.890000000000001,-0.03398702717619427
7.892,-0.08342246153375424
7.894,-0.09175184038356074
7.896,-0.10089887167567088
7.898000000000001,-0.08221622832695569
7.9,-0.05544686774782576
7.902,-0.07649783494551039
7.904,-0.09042718865537219
7.906000000000001,-0.07654031651781468
7.908,-0.08536590261822957
7.91,-0.03489188846665898
7.912,-0.03599064210682365
7.914000000000001,-0.0070715924048161145
7.916,0.027606974561987956
7.918,0.0668889899733993
7.92,0.09911318197161104
7.922000000000001,0.14610104947886843
7.924,0.17220476094073695
7.926,0.2017810081774531
7.928,0.2628439244408471
7.930000000000001,0.33907973801638197
7.932,0.393831973758465
7.934,0.42838634867993036
7.936,0.46965779905268995
7.938,0.522611125401881
7.94,0.5731360007612508
7.942,0.5833872229068336
7.944,0.7048756015539508
7.946,0.7001031540998897
7.948,0.7761195014788523
7.95,0.8110480925833228
7.952,0.8545101888857595
7.954,0.8813550270998971
7.956,0.9196577032984523
7.958,0.981033144977209
7.96,0.9359383958831069
7.962,0.9674705127404732
7.964,0.9943550909090813
7.966,0.9884354774266002
7.968,0.9989253992824922
7.97,0.9535101370659191
7.972,0.9475975582283893
7.974,0.9462929290292625
7.976,0.8743419477816398
7.978,0.8408062162522778
7.98,0.8644481879474685
7.982,0.7737263311596165
7.984,0.7869467779615091
7.986,0.6908973697711968
7.988,0.67501471789161
7.99,0.5922478027562951
7.992,0.5759222739846067
7.994,0.519978805892914
7.996,0.4866590154520007
7.998,0.4394298133119994
8.0,0.4006138875536586
8.002,0.31312320916822145
8.004,0.3316679218947513
8.006,0.21393277111834405
8.008000000000001,0.18379079399694304
8.01,0.17449045241962513
8.012,0.1364079949651903
8.014,0.12610553345155862
8.016,0.10383302009516883
8.018,0.06105853666323698
8.02,0.06209402011193099
8.022,0.01751484055126886
8.024000000000001,0.002120316535208517
8.026,-0.015244021513894965
8.028,0.03922609023339234
8.03,0.035394152485253655
8.032,0.01149690960266899
8.034,-0.007853065646120951
8.036,0.01810523065812673
8.038,0.015435508271355602
8.040000000000001,-0.005978552756419713
8.042,0.019976624521598985
8.044,-0.012616932620484465
8.046,-0.006262687127403278
8.048,-0.010094564432202812
8.05,-0.0014560386142282982
8.052,0.007887677710886965
8.054,0.012241604335294639
8.056000000000001,0.015315070003801529
8.058,0.028232011639618727
8.06,0.0491852982035615
8.062,0.009270026821620156
8.064,0.010026335679912107
8.066,0.013710120326450253
8.068,0.002947612185423396
8.07,0.028082284405251297
8.072000000000001,0.027168038666738746
8.074,0.04419904416429463
8.076,0.08269956702839273
8.078,0.07184680283434072
8.08,0.045104514086026226
8.082,0.05735378100605208
8.084,0.05972769225966187
8.086,0.08600908466678321
8.088000000000001,0.08069687889877913
8.09,0.10795647174629867
8.092,0.09273449072858583
8.094,0.10453909964227003
8.096,0.0911172371066673
8.098,0.09268228306844314
8.1,0.12331240971225185
8.102,0.15175057936636285
8.104000000000001,0.14348012321333656
8.106,0.14115049369727847
8.108,0.12901810387411605
8.11,0.1066862330456527
8.112,0.18346192983463316
8.114,0.1499364387743817
8.116,0.15606517648455132
8.118,0.18001645557122803
8.120000000000001,0.1988950001194783
8.122,0.21160555138220466
8.124,0.17418974873230592
8.126,0.18900866042124334
8.128,0.19155610244010987
8.13,0.14469840594212846
8.132,0.2095586988820647
8.134,0.21885301031338783
8.136000000000001,0.1724578938559905
8.138,0.1693285432435344
8.14,0.22106776723360042
8.142,0.20700915959521807
8.144,0.20637292082359787
8.146,0.17569128727080413
8.148,0.20484574816897344
8.15,0.2127031138811984
8.152000000000001,0.23142457876942069
8.154,0.2186017490256794
8.156,0.24753692087450527
8.158,0.25153433100110256
8.16,0.196716010603693
8.162,0.20279361291323506
8.164,0.20556232128682378
8.166,0.1973094236218253
8.168000000000001,0.19336700698638395
8.17,0.20708596833698686
8.172,0.20124481252460572
8.174,0.20140137245747813
8.176,0.19313028405154856
8.178,0.23048245426759761
8.18,0.22734682951748533
8.182,0.2282247495651235
8.184000000000001,0.23402315777638252
8.186,0.2064019112810002
8.188,0.2179812906009334
8.19,0.21890817296602946
8.192,0.19583849048709095
8.194,0.1918591668208058
8.196,0.1631042661978102
8.198,0.176077720508855
8.2,0.16119344879718378
8.202,0.18235956115017926
8.204,0.1607195244077395
8.206,0.19150935637161093
8.208,0.15520953974517532
8.21,0.14086816702872296
8.212,0.16594916823738065
8.214,0.1271837032837108
8.216,0.150321166369348
8.218,0.1181251693509466
8.22,0.10038620151875222
8.222,0.13455881818930293
8.224,0.11232182552622388
8.226,0.08163537919880132
8.228,0.07379595454149908
8.23,0.09765915166912281
8.232,0.0931326795264276
8.234,0.027928336470098687
8.236,0.06023394902239397
8.238,0.04336901998785523
8.24,-0.0031045166653217993
8.242,0.057231143882990866
8.244,0.025517360995662958
8.246,0.015252404344487304
8.248,0.027412790010009597
8.25,0.0032768971621896514
8.252,0.017954591447933266
8.254,-0.03776610814473451
8.256,0.006770380361343302
8.258000000000001,-0.023418102176674886
