time,ecg
0.0,-0.033153980438540585
0.002,-0.02610286312738956
0.004,0.019666279766251495
0.006,0.008112693672052243
0.008,-0.005808264675705187
0.01,-0.008907457801202449
0.012,0.02818044684474728
0.014,-0.020468632522992074
0.016,-0.002450935918305779
0.018000000000000002,0.010469744577460974
0.02,-0.016842319244760005
0.022,0.008243736439605062
0.024,0.04094604585615722
0.026000000000000002,0.03365693063143324
0.028,0.034575578115431625
0.03,0.023591751172333975
0.032,0.04963876805486735
0.034,-0.007730677398686794
0.036000000000000004,0.03286916067057065
0.038,0.02204490992784517
0.04,0.022783343592718594
0.042,0.03853147019598625
0.044,0.026866279412878065
0.046,0.04667734198177187
0.048,0.01759126321230506
0.05,0.07104413035461743
0.052000000000000005,0.051770444761145715
0.054,0.06354792632239509
0.056,0.07130457378919865
0.058,0.04079281575462916
0.06,0.05832005477221862
0.062,0.12016899589000019
0.064,0.060265543488315275
0.066,0.06278866006998321
0.068,0.03760516794501248
0.07,0.06664417922565391
0.07200000000000001,0.09284493611609707
0.074,0.10119062464912992
0.076,0.11404226892768148
0.078,0.08041362274893987
0.08,0.07237779069059073
0.082,0.10717734329949043
0.084,0.06994175248656276
0.08600000000000001,0.07376721666848414
0.088,0.10572810431471341
0.09,0.09469052091652519
0.092,0.13253072347853145
0.094,0.11903156602096011
0.096,0.08247123150771912
0.098,0.1029024204798332
0.1,0.13749520314897418
0.10200000000000001,0.08131210171321201
0.10400000000000001,0.10294996617023046
0.106,0.09927644304706086
0.108,0.14073867019804526
0.11,0.09255031070342415
0.112,0.12595913301456005
0.114,0.13607072567850156
0.116,0.10934271632273936
0.11800000000000001,0.1279261183160859
0.12,0.12989225676276978
0.122,0.1272625587866292
0.124,0.08694312371592285
0.126,0.07930753185619183
0.128,0.11242326071385496
0.13,0.12430145293861167
0.132,0.06927771644006549
0.134,0.07841704717277292
0.136,0.1021070359210505
0.138,0.06509051962904727
0.14,0.05889752033049947
0.14200000000000002,0.05430739737352993
0.14400000000000002,0.04601746954527072
0.146,0.03271469643766363
0.148,0.04320387123196898
0.15,0.09861814140510021
0.152,0.07986003716164006
0.154,0.06239036804724812
0.156,-0.00453291623180618
0.158,0.05583372879156135
0.16,0.01724476630204141
0.162,0.018615086194367983
0.164,0.0034479775099710216
0.166,-0.031169657114311643
0.168,0.03030280119538445
0.17,-0.0165759457763842
0.17200000000000001,-0.004401756279239208
0.17400000000000002,0.010253466117432206
0.176,-0.017628183007811396
0.178,-0.04600950844408748
0.18,-0.05091406774683244
0.182,-0.04807511500152434
0.184,-0.04018201167403232
0.186,-0.05404064659686821
0.188,-0.03992020864453259
0.19,-0.0611329091419424
0.192,-0.036477108134337605
0.194,-0.011615843905375872
0.196,0.003514801606626053
0.198,0.03387231727560855
0.2,0.040323085302741105
0.202,0.01263667798611514
0.20400000000000001,0.08878411371659406
0.20600000000000002,0.15401791091056588
0.20800000000000002,0.11106654622201836
0.21,0.2368932126823352
0.212,0.270374148782944
0.214,0.3383096983436235
0.216,0.37812603329906946
0.218,0.44218393855460303
0.22,0.4905905185994073
0.222,0.5306694966049681
0.224,0.5538503578091779
0.226,0.6535670890853743
0.228,0.719262982607555
0.23,0.7532786446572909
0.232,0.7492307478935117
0.234,0.8139566974272016
0.23600000000000002,0.8872091322670081
0.23800000000000002,0.9082553570064233
0.24,0.957940963999905
0.242,0.9747980924995787
0.244,0.988063419566121
0.246,0.9845460588368351
0.248,1.0075469964194208
0.25,1.071837566032513
0.252,1.0369891170581476
0.254,0.9871326362405679
0.256,0.9984015092647494
0.258,0.9551216214678009
0.26,0.9644321565179776
0.262,0.9088331443662108
0.264,0.9228721439255191
0.266,0.8133289184561362
0.268,0.8039738372135536
0.27,0.7905114534242613
0.272,0.7298737963230061
0.274,0.7164168992277665
0.276,0.6390276415656548
0.278,0.6243967105854112
0.28,0.5499604561923452
0.28200000000000003,0.5058213882407574
0.28400000000000003,0.44503310157536957
0.28600000000000003,0.4471250854759383
0.28800000000000003,0.3647104281118015
0.29,0.29866213801117103
0.292,0.3241196188954962
0.294,0.2531636389612031
0.296,0.20362887156630366
0.298,0.17868806225035477
0.3,0.10415450710819574
0.302,0.13545273773504823
0.304,0.09189081989407594
0.306,0.10651655092104287
0.308,0.07189988513751384
0.31,0.049388559515474474
0.312,0.06844995761465568
0.314,0.03831800990094404
0.316,0.05988517774171667
0.318,0.06905077258218147
0.32,0.04592214980775592
0.322,0.0423009112718857
0.324,0.017830149326772127
0.326,0.05571189478190311
0.328,0.015412237717644786
0.33,0.009952048188749528
0.332,0.059652947563061866
0.334,0.05524812045126476
0.336,0.018470158036285555
0.338,0.040568404687470555
0.34,0.00950856141967326
0.342,0.05103197705034143
0.34400000000000003,0.07175136777956147
0.34600000000000003,0.02572647581191988
0.34800000000000003,0.04068841857512954
0.35000000000000003,0.010152250494497111
0.352,0.03352071909126594
0.354,0.04981008965290115
0.356,0.03456712973717059
0.358,0.033563612082901394
0.36,0.017580832255828037
0.362,0.028459091170081115
0.364,0.05010410592416014
0.366,0.020707100937509704
0.368,0.059224778017098155
0.37,0.04243618923005679
0.372,0.03995486940964239
0.374,0.063630503997909
0.376,0.03783288398490168
0.378,0.038444010704344174
0.38,0.04258829010937501
0.382,0.05183368254198602
0.384,0.06721724577603488
0.386,0.027826018882642217
0.388,0.06198257167158058
0.39,0.07220006478571235
0.392,0.04648434413789938
0.394,0.09058338715716902
0.396,0.029503096154818786
0.398,0.034458836706153954
0.4,0.018432561717538914
0.402,0.03315142453751501
0.404,0.061607598225271336
0.406,0.04591754186140164
0.40800000000000003,0.03963356664949369
0.41000000000000003,0.026023997253113683
0.41200000000000003,0.03247047866030127
0.41400000000000003,0.03931797123202675
0.41600000000000004,0.03498457437380083
0.418,0.0493295919825588
0.42,0.04832736981908262
0.422,0.042989029199313245
0.424,0.03153347206501302
0.426,0.050048232853457233
0.428,-0.0028539920779174555
0.43,0.07036116118991326
0.432,0.048077438278007846
0.434,0.0741838022369292
0.436,0.06712959073082611
0.438,0.06789442236468553
0.44,0.03711236459472982
0.442,0.041618714912336686
0.444,0.08054960184686516
0.446,0.07669962625105423
0.448,0.02198926404131796
0.45,0.05267278746046081
0.452,0.029269273529148074
0.454,0.04199239633428166
0.456,0.053259810854868805
0.458,0.02813600779850296
0.46,0.030403346585241933
0.462,0.041299685352618395
0.464,0.02169606312336716
0.466,0.02609671183704191
0.468,0.05470940171103323
0.47000000000000003,0.023293807073354447
0.47200000000000003,0.04525766318964678
0.47400000000000003,0.06821132022517033
0.47600000000000003,0.04131445163301862
0.47800000000000004,0.05804878498312602
0.48,-0.00914664157388365
0.482,-0.003445135334274485
0.484,-0.00015114949869146285
0.486,0.022462327230869127
0.488,0.024931077033658593
0.49,0.049230253722304676
0.492,0.01426604877770856
0.494,0.026514543017314627
0.496,0.001577945216417572
0.498,0.05252880587863409
0.5,-0.015713526495504504
0.502,-0.016791285099642082
0.504,0.03722800885444256
0.506,-0.013518504838346337
0.508,-0.004836620653721833
0.51,-0.017510365357521422
0.512,0.02488874429351498
0.514,-0.0428045818282592
0.516,0.0052593655118193736
0.518,-0.013820779463732676
0.52,0.0013276184302448354
0.522,0.005095646423419906
0.524,0.008230407009437085
0.526,-0.004127769979787324
0.528,-0.006220040351633198
0.53,-0.062203085233673835
0.532,-0.007802737920893685
0.534,0.009784859444080751
0.536,-0.01092401683667392
0.538,-0.04931449347542361
0.54,-0.013778280179318633
0.542,-0.028412571327998397
0.544,-0.052840053457005334
0.546,-0.08180392517401847
0.548,-0.056568045476248115
0.55,-0.054758417795870554
0.552,-0.08838701932029686
0.554,-0.10766150240205269
0.556,-0.08711718925230913
0.558,-0.06885538480759763
0.56,-0.07785507755868146
0.562,-0.057167331014813055
0.5640000000000001,-0.0684977290555833
0.5660000000000001,-0.03824199849332774
0.5680000000000001,-0.054128862901802216
0.5700000000000001,-0.08768390678877958
0.5720000000000001,-0.06345069621629384
0.5740000000000001,-0.09794587328251031
0.5760000000000001,-0.09781438145117508
0.578,-0.12820083163126098
0.58,-0.0837392416565127
0.582,-0.07280842799735346
0.584,-0.07685751577942274
0.586,-0.09171547047764059
0.588,-0.10631721131473361
0.59,-0.11143298477535878
0.592,-0.10790276648726746
0.594,-0.09077834454757572
0.596,-0.10109894578553913
0.598,-0.11493464628315078
0.6,-0.11150863760611558
0.602,-0.09136412290430886
0.604,-0.0832480531878067
0.606,-0.08728577704990406
0.608,-0.11567153455476789
0.61,-0.08834896579990315
0.612,-0.11007860470340428
0.614,-0.11255211771753595
0.616,-0.08744495752564456
0.618,-0.09387031320050371
0.62,-0.1331067480234989
0.622,-0.08696757960614412
0.624,-0.08903470828301613
0.626,-0.0841692879163075
0.628,-0.04902765693554534
0.63,-0.03290871223340912
0.632,-0.08852242738405343
0.634,-0.11558545156045391
0.636,-0.059876199951691245
0.638,-0.07255719565602062
0.64,-0.060215602534629
0.642,-0.0634733513188438
0.644,-0.06093120143797737
0.646,-0.09130325542901202
0.648,-0.04885095613915407
0.65,-0.06380417132260052
0.652,-0.05084867640386293
0.654,-0.0388514555290865
0.656,-0.036062675924801536
0.658,-0.04220927528256389
0.66,-0.03549564598041072
0.662,-0.02908000228193846
0.664,-0.014866003497305935
0.666,-0.035485421213776354
0.668,-0.037850304710305704
0.67,-0.01763952663645168
0.672,-0.053883100157107316
0.674,0.0011635592658691962
0.676,-0.018742873705041255
0.678,-0.023984149230683774
0.68,0.037930489272389435
0.682,-0.026294139378776525
0.684,-0.005884075669439777
0.686,-0.03542667950946878
0.6880000000000001,-0.01210928056569821
0.6900000000000001,0.0008798173852693908
0.6920000000000001,0.02786762930627925
0.6940000000000001,0.008786656525057147
0.6960000000000001,-0.0234315216754558
0.6980000000000001,5.9922567213904765e-06
0.7000000000000001,-0.0037776280395613315
0.7020000000000001,-0.002234923818806866
0.704,-0.000886372154722391
0.706,0.005650788935451994
0.708,-0.0014001589226966989
0.71,0.02590450529797196
0.712,0.023922621442616514
0.714,0.03903444298645427
0.716,0.030146680032478387
0.718,0.0011280241448752698
0.72,0.03347414995145294
0.722,0.003069439689539032
0.724,0.019059490665166143
0.726,0.043126729821547985
0.728,-0.005922240959381958
0.73,0.0031590024047914982
0.732,0.03753293448097155
0.734,0.0587359859931511
0.736,-0.0008656810437034888
0.738,0.023176296907271368
0.74,0.05258444931498614
0.742,0.016714534535691508
0.744,0.014007282331245405
0.746,0.0864647589044939
0.748,0.010522526764563805
0.75,0.04665973989831333
0.752,0.03679560274687167
0.754,-0.0006274760322469474
0.756,0.009374960671224099
0.758,0.03199237893030024
0.76,0.023587930107734044
0.762,0.02397988778984667
0.764,0.004453668988645204
0.766,-0.005395978797596644
0.768,0.04195354085172947
0.77,0.03034549787341528
0.772,0.051263964741497164
0.774,0.04008390109701223
0.776,0.05598923706915414
0.778,0.018693060822926332
0.78,0.02799681974371332
0.782,0.040205952790681364
0.784,0.02963773885782784
0.786,0.06974633363295238
0.788,0.025855647895658147
0.79,0.030008123550264856
0.792,-0.0007956110509193079
0.794,0.008127958880494984
0.796,0.04288663580976805
0.798,0.05547582918841085
0.8,0.015667579132526106
0.802,0.025493738590307426
0.804,-0.0008618222842864928
0.806,0.017229554306321906
0.808,0.012653302957676417
0.81,0.05769771345119841
0.812,-0.009884647123060955
0.8140000000000001,0.047633025267976005
0.8160000000000001,0.025262757372750837
0.8180000000000001,0.02378470456876037
0.8200000000000001,0.02221033688513237
0.8220000000000001,0.05443656746594678
0.8240000000000001,0.022913194480633958
0.8260000000000001,0.008511454362251834
0.8280000000000001,0.03804116005902156
0.8300000000000001,0.046290820480135574
0.8320000000000001,-0.00030104578864174165
0.834,0.035079868038957795
0.836,0.005636790518770133
0.838,0.012943278505697974
0.84,0.0383318577581072
0.842,0.04496994307063243
0.844,-0.006609197226524941
0.846,0.025558820728174933
0.848,0.028503467698809057
0.85,0.025165388574715005
0.852,0.04447260644760126
0.854,-0.011702827026293727
0.856,0.04829326351437452
0.858,0.062139415552805145
0.86,0.04150816057493948
0.862,0.007023715540070492
0.864,0.0616968360686507
0.866,0.037099802390030724
0.868,0.039883416979204445
0.87,0.01737583267279172
0.872,0.007666761378057711
0.874,0.04211185626565231
0.876,0.031226943698869598
0.878,0.013899216074848487
0.88,0.03865934786958458
0.882,0.004950347692315072
0.884,0.025112700384723737
0.886,0.03537146618625968
0.888,0.0520210826970004
0.89,0.061755202978112406
0.892,0.03926179307634188
0.894,0.005284584591817545
0.896,0.019539091109081773
0.898,0.03153235571584008
0.9,0.009393525855943895
0.902,0.038312723443618885
0.904,0.04590582576699005
0.906,0.07059281154009323
0.908,0.0278523663883857
0.91,0.048829945843965814
0.912,0.029102891606954992
0.914,0.07548020717005696
0.916,0.03649535139382658
0.918,0.05433627262261039
0.92,0.07856979988435803
0.922,0.05677820332671088
0.924,0.0593728883251152
0.926,0.09948966203598986
0.928,0.0748384674274398
0.93,0.08370707445503563
0.932,0.0986198560772909
0.934,0.07919056787972614
0.936,0.1273204666788343
0.9380000000000001,0.11077267410496357
0.9400000000000001,0.1109439159963522
0.9420000000000001,0.11269197961341729
0.9440000000000001,0.08681592413978599
0.9460000000000001,0.08272751628901998
0.9480000000000001,0.0983375074590759
0.9500000000000001,0.13564916846275296
0.9520000000000001,0.09630546251874422
0.9540000000000001,0.12349278552578169
0.9560000000000001,0.09200544904725913
0.9580000000000001,0.09278985588836547
0.96,0.10464389261710984
0.962,0.11362211207875306
0.964,0.13184861187861513
0.966,0.1061443472688839
0.968,0.14921288176558545
0.97,0.11107327440096976
0.972,0.1127909143970313
0.974,0.1019797533020047
0.976,0.0683005030421398
0.978,0.07928528415134248
0.98,0.08943396895840328
0.982,0.08840311544184526
0.984,0.0719025743566244
0.986,0.07101338467138933
0.988,0.03502079843521028
0.99,0.046595544419309506
0.992,0.10669465328631988
0.994,0.03514657596819184
0.996,0.04899215921650885
0.998,0.06305929987960916
1.0,0.03287980464907609
1.002,0.0628295315219663
1.004,0.04358313529897726
1.006,0.055794184501298735
1.008,-0.005554544810817515
1.01,0.034972261358775646
1.012,-0.011667422549316867
1.014,-0.01438387260657584
1.016,0.013494069129794882
1.018,0.013053098277073027
1.02,-0.0430714000989487
1.022,-0.010434314229402206
1.024,-0.007339942443496228
1.026,-0.07277611567916642
1.028,-0.033418421785452165
1.03,-0.06397219376049694
1.032,-0.04269853357314477
1.034,-0.08321838452132002
1.036,-0.09762365628437257
1.038,-0.08210390132499451
1.04,-0.12114666913167793
1.042,-0.10103834350260343
1.044,-0.10002457735226745
1.046,-0.06737314120238874
1.048,-0.06236097959836692
1.05,-0.07570856138537349
1.052,-0.05509811041429737
1.054,-0.08573580148597452
1.056,-0.021980099260557565
1.058,0.005401007148090817
1.06,0.055613209869728654
1.062,0.0701570896693314
1.064,0.08971676807355984
1.066,0.16003982988649407
1.068,0.1938051224884061
1.07,0.27107620904540053
1.072,0.3049636410624632
1.074,0.37646928073039143
1.076,0.38312880431908813
1.078,0.43112384573836904
1.08,0.5071945649381151
1.082,0.5748651984301578
1.084,0.6287648790057327
1.086,0.6685076744578297
1.088,0.6759695834304931
1.09,0.7605574828287809
1.092,0.8038194952046049
1.094,0.8315530033541488
1.096,0.9202542629831679
1.098,0.8830071609520459
1.1,0.8985762875816918
1.102,0.9615739949401708
1.104,0.9536443228876351
1.106,0.9409319453398877
1.108,0.9783091869210099
1.11,0.9515303632253156
1.112,0.9074500456079573
1.114,0.9369194143094896
1.116,0.9165865960875094
1.118,0.8965431178334362
1.12,0.8568811745894552
1.122,0.8301802171646216
1.124,0.7698235571702206
1.1260000000000001,0.7448049859137785
1.1280000000000001,0.7097829027824083
1.1300000000000001,0.6617899983021103
1.1320000000000001,0.6254771732351387
1.1340000000000001,0.525272191089101
1.1360000000000001,0.5372110949462612
1.1380000000000001,0.48101850996009665
1.1400000000000001,0.4145756781658594
1.1420000000000001,0.36293943841812104
1.1440000000000001,0.3588777917526055
1.1460000000000001,0.2681503261748375
1.1480000000000001,0.1927212441698307
1.1500000000000001,0.21014556064294654
1.1520000000000001,0.1786609063002189
1.154,0.12722312543318898
1.156,0.07685652310905837
1.158,0.05989795565572901
1.16,0.045183171545847896
1.162,0.001644220303881866
1.164,-0.00447635283005985
1.166,-0.0016908525847861774
1.168,-0.015963236107212682
1.17,-0.021634004559531333
1.172,-0.02271811461631413
1.174,-0.030005076183441545
1.176,-0.04671469626546779
1.178,-0.01886862615611555
1.18,-0.0759828676918238
1.182,-0.06208616008315106
1.184,-0.05619191771040248
1.186,-0.058341500926950694
1.188,-0.04285087167333792
1.19,-0.05556082499479524
1.192,-0.05670486952173638
1.194,-0.05720556763488998
1.196,-0.038226930711324505
1.198,-0.01453795988548189
1.2,-0.03006766974401565
1.202,-0.01595005020993118
1.204,-0.04268615785822427
1.206,-0.04992172231699173
1.208,-0.03640734310110781
1.21,-0.016829367291001554
1.212,-0.042451307385133995
1.214,-0.041588769393956435
1.216,-0.061511078912236374
1.218,-0.05976338309692727
1.22,-0.014258955768156455
1.222,-0.008466857659270957
1.224,-0.053287776527595546
1.226,-0.01972250961107238
1.228,-0.0637309959001565
1.23,-0.01824841118381662
1.232,-0.040754525769269856
1.234,-0.02874633144429118
1.236,-0.055958934089967265
1.238,-0.028932899666914664
1.24,-0.00930593254773702
1.242,-0.06249023937761593
1.244,-0.03245094530247403
1.246,-0.029041944214675777
1.248,-0.048521136033279996
1.25,-0.04520543249841915
1.252,-0.055822200336532145
1.254,-0.07278389184421988
1.256,0.0019623871892204777
1.258,-0.06142740352010526
1.26,-0.0420872868171351
1.262,-0.041475509356849266
1.264,-0.05265776791121467
1.266,-0.033206173633524176
1.268,-0.03579660932681009
1.27,-0.016586588940556198
1.272,-0.05884592957376246
1.274,-0.0010853912251621222
1.276,-0.04338557342181352
1.278,-0.012378488633335237
1.28,-0.06495042524943123
1.282,-0.013544422034776155
1.284,-0.02617666793032219
1.286,-0.009615797323866278
1.288,-0.03247390683089935
1.29,-0.07713676048698807
1.292,-0.0742465425281899
1.294,-0.06540556491909467
1.296,-0.0481932283138264
1.298,-0.023898466741511193
1.3,-0.061479717576604136
1.302,-0.053933467792619295
1.304,-0.042643265408584714
1.306,-0.05357854741324322
1.308,-0.07066426715928266
1.31,-0.033374792483481644
1.312,-0.0640559654552909
1.314,-0.04420485054898601
1.316,-0.06261198575972553
1.318,-0.015158716573825153
1.32,-0.052074524704372564
1.322,-0.08749124164008433
1.324,-0.05351408266922846
1.326,-0.07736161922366874
1.328,-0.0646027978717832
1.33,-0.03275180483446709
1.332,-0.055409277815172894
1.334,-0.03144941035362177
1.336,-0.04107982213750854
1.338,-0.05726045272614174
1.34,-0.05609424202159933
1.342,-0.0626721759491132
1.344,-0.031213990086553366
1.346,-0.08103798375010832
1.348,-0.11377634000978046
1.35,-0.033642152499758736
1.352,-0.07427185553520907
1.354,-0.07934306205049477
1.356,-0.0781973265858947
1.358,-0.08393407190948508
1.36,-0.07056258108504893
1.362,-0.09789106527157442
1.364,-0.05720053843859882
1.366,-0.10539866719111043
1.368,-0.09352499688554627
1.37,-0.11183856615211367
1.372,-0.0652495856532091
1.374,-0.11716905780667108
1.3760000000000001,-0.13590720954567104
1.3780000000000001,-0.1009508992857857
1.3800000000000001,-0.09499316073691344
1.3820000000000001,-0.11593036672453877
1.3840000000000001,-0.12754231286493728
1.3860000000000001,-0.09823659060679787
1.3880000000000001,-0.16525000088617167
1.3900000000000001,-0.12100104392919192
1.3920000000000001,-0.12851039352759785
1.3940000000000001,-0.12230699080260002
1.3960000000000001,-0.14027996141945645
1.3980000000000001,-0.16497316694125747
1.4000000000000001,-0.14501449621369294
1.4020000000000001,-0.17594686425322092
1.4040000000000001,-0.12728745413772355
1.4060000000000001,-0.11677029273149406
1.408,-0.18583634294970702
1.41,-0.21513062803557587
1.412,-0.1703882270194332
1.414,-0.19604290790093182
1.416,-0.20177184637118956
1.418,-0.13520900125066376
1.42,-0.18153816892264524
1.422,-0.18348047791539668
1.424,-0.18050356070773724
1.426,-0.15439090852989498
1.428,-0.19682660918662798
1.43,-0.21490529895475957
1.432,-0.19598890122707197
1.434,-0.1923631091082637
1.436,-0.22903827026958645
1.438,-0.19783574224475325
1.44,-0.18783485758702645
1.442,-0.20141175169060743
1.444,-0.19551396775219076
1.446,-0.20310797407108924
1.448,-0.1924310602066565
1.45,-0.20318928440175843
1.452,-0.20071004020430586
1.454,-0.20663530636218239
1.456,-0.1535663012519397
1.458,-0.22811794718327577
1.46,-0.2119106972453687
1.462,-0.2474624975305893
1.464,-0.21725686567671976
1.466,-0.19331216254138467
1.468,-0.24179106251133012
1.47,-0.22685497617111078
1.472,-0.17839725806143947
1.474,-0.21149913992949548
1.476,-0.1457754883703746
1.478,-0.194320364463387
1.48,-0.15811583712914132
1.482,-0.19211608395851126
1.484,-0.2004804563660515
1.486,-0.14327706154170325
1.488,-0.18042967618151573
1.49,-0.18400051104396434
1.492,-0.20065576229364762
1.494,-0.16875031270411753
1.496,-0.17251622080224
1.498,-0.17718987374517925
1.5,-0.1526285517592843
1.502,-0.14264058539512275
1.504,-0.18661097696061202
1.506,-0.1303803798671299
1.508,-0.17113439811520692
1.51,-0.1730415426257414
1.512,-0.1611307889081696
1.514,-0.1429369467157221
1.516,-0.142941469308354
1.518,-0.13763218911824554
1.52,-0.15169768738945463
1.522,-0.13676135879660972
1.524,-0.10890335578737849
1.526,-0.1367618467038467
1.528,-0.14074368726209746
1.53,-0.1318687358257461
1.532,-0.09664552814341648
1.534,-0.0503501689273506
1.536,-0.0928122601046417
1.538,-0.10131522219555614
1.54,-0.06564137311521914
1.542,-0.09748684463989263
1.544,-0.10916230310262806
1.546,-0.10083209808350131
1.548,-0.09196210685804623
1.55,-0.08270606927706617
1.552,-0.060328052596267084
1.554,-0.08267163844056685
1.556,-0.07179347818969829
1.558,-0.062485258213612546
1.56,-0.09282303556522065
1.562,-0.08111743094284547
1.564,-0.09272951131676255
1.566,-0.09839164681268542
1.568,-0.10037371340231428
1.57,-0.07002437786709126
1.572,-0.07301486739247631
1.574,-0.07375619566897257
1.576,-0.06531288594241813
1.578,-0.05218240616760508
1.58,-0.057524977195122826
1.582,-0.09149260749907372
1.584,-0.04251434878412749
1.586,-0.026328920687057854
1.588,-0.056797089716601835
1.59,-0.08513567840298447
1.592,-0.09178105623582539
1.594,-0.11135226872226234
1.596,-0.05181226344606578
1.598,-0.03194176100257114
1.6,-0.04790099174113637
1.602,-0.07173847116944677
1.604,-0.07027050643923101
1.606,-0.05934466693244442
1.608,-0.03631182941620633
1.61,0.0045970695737447866
1.612,-0.06985011849076109
1.614,-0.06512870002056119
1.616,-0.00198567903244413
1.618,-0.03853400774948441
1.62,-0.0458779285003503
1.622,-0.018599397949207886
1.624,-0.0482028334816214
1.6260000000000001,-0.04675920856288739
1.6280000000000001,-0.05649763466435075
1.6300000000000001,-0.0757832736029549
1.6320000000000001,-0.03648429091945665
1.6340000000000001,-0.051621645708862775
1.6360000000000001,-0.06883975880640955
1.6380000000000001,-0.03846065267381778
1.6400000000000001,-0.029705435568463934
1.6420000000000001,-0.04388700307300743
1.6440000000000001,-0.051561863853677635
1.6460000000000001,-0.043256637637898276
1.6480000000000001,-0.040432981035152395
1.6500000000000001,-0.04304638605802941
1.6520000000000001,0.0019679416866885953
1.6540000000000001,-0.036836574724562414
1.6560000000000001,-0.033106335288929964
1.6580000000000001,-0.0575753891832324
1.6600000000000001,-0.05806367420509341
1.6620000000000001,-0.05148487226400154
1.6640000000000001,-0.03643420247374991
1.666,-0.07763235650481834
1.668,-0.02897095934818518
1.67,-0.053462315799979496
1.672,-0.048757409292101254
1.674,-0.026342704016107398
1.676,-0.020986374134260077
1.678,-0.025475838284176724
1.68,-0.008530705293452852
1.682,-0.06629130204261757
1.684,-0.019105722608345078
1.686,-0.037341142952799736
1.688,-0.06705606628774424
1.69,-0.04544812971116399
1.692,-0.011584612933873212
1.694,-0.014523045053068326
1.696,-0.02929055061671103
1.698,-0.02828253446241967
1.7,-0.06366316669906132
1.702,0.024110750288563392
1.704,-0.04732694215803872
1.706,-0.03753225050042809
1.708,-0.044742999291166555
1.71,-0.052494023830274614
1.712,-0.028712824854367693
1.714,-0.03609557132798364
1.716,-0.04437829419965216
1.718,-0.022304596094907966
1.72,0.0007744924046456303
1.722,-0.032936180609574414
1.724,-0.06659201016757159
1.726,-0.002993261957532946
1.728,-0.02050335494273489
1.73,-0.055744374525723284
1.732,-0.006624938458010309
1.734,0.005014755728698448
1.736,-0.028487137962936844
1.738,-0.05229862428399574
1.74,0.00056376999170645
1.742,-0.008218439791989406
1.744,-0.015565261628532088
1.746,-0.05287582078022919
1.748,-0.03429854782854466
1.75,-0.023941568920805102
1.752,-0.02998057012367621
1.754,-0.0499864246697696
1.756,-0.022167638153330206
1.758,-0.012268956321536562
1.76,0.007385493712015235
1.762,-0.012496914055030499
1.764,-0.004476799581341555
1.766,-0.0008527696906380083
1.768,0.011368161620165695
1.77,0.03651540760378296
1.772,-0.014230246602243382
1.774,0.025893611115481205
1.776,0.006452922302096327
1.778,0.02487820590087836
1.78,0.03988210254169972
1.782,0.028231410544123203
1.784,0.048561988599940764
1.786,0.03212346554366207
1.788,0.0541105392821571
1.79,0.03038559173586551
1.792,0.03378507151858423
1.794,0.02093764903159248
1.796,0.07093006551073905
1.798,0.047341120560881265
1.8,0.0391473688360576
1.802,0.0844139489836963
1.804,0.0658431228403001
1.806,0.08539066358875735
1.808,0.04912258462757497
1.81,0.062326265662221755
1.812,0.08589494491676411
1.814,0.06562620803244049
1.816,0.043431230391842754
1.818,0.11111408758772529
1.82,0.11767433977535155
1.822,0.10223963674853546
1.824,0.0420755542647929
1.826,0.06633980574401596
1.828,0.05468455924071179
1.83,0.06937837500677049
1.832,0.052958871445443194
1.834,0.0734292054823083
1.836,0.05681556668666489
1.838,0.050578297243451975
1.84,0.04009580922872784
1.842,0.061757277541984124
1.844,0.03301445849173579
1.846,0.06324141094127404
1.848,0.030910757475612158
1.85,0.039059062948953185
1.852,0.05777904218548958
1.854,0.003517190352566757
1.856,0.02027877019245734
1.858,0.031192129080993662
1.86,0.017072021995964345
1.862,-0.03669766105175202
1.864,0.01285496632334274
1.866,-0.0035749398859487615
1.868,0.00599867407973744
1.87,0.0011997020168227433
1.872,-0.017222310859663807
1.874,-0.026281981677504684
1.8760000000000001,-0.03723511714987675
1.8780000000000001,-0.04459555511636605
1.8800000000000001,-0.05578095930551923
1.8820000000000001,-0.04088511895794948
1.8840000000000001,-0.05836662350798462
1.8860000000000001,-0.04033357462942813
1.8880000000000001,-0.07776235168154906
1.8900000000000001,-0.06283337602294149
1.8920000000000001,-0.09701769631961527
1.8940000000000001,-0.09140985464116631
1.8960000000000001,-0.09990648111067577
1.8980000000000001,-0.10629375140934852
1.9000000000000001,-0.08354118927877846
1.9020000000000001,-0.11068361494255016
1.9040000000000001,-0.1049224008663751
1.9060000000000001,-0.1112485330509135
1.9080000000000001,-0.09239309456767726
1.9100000000000001,-0.007304144666188818
1.9120000000000001,-0.04354388685891551
1.9140000000000001,-0.02912609026639125
1.9160000000000001,0.030791089351007085
1.9180000000000001,0.07574179141524778
1.92,0.05222104681701323
1.922,0.15559020119008074
1.924,0.1903824964541654
1.926,0.24082853314458402
1.928,0.30479270754247106
1.93,0.29458034774647207
1.932,0.3613039908780156
1.934,0.45407700173013754
1.936,0.45156264057646367
1.938,0.5239749707898166
1.94,0.5732983224700252
1.942,0.6602230172619247
1.944,0.6331993267098571
1.946,0.7090462609199046
1.948,0.813553260614591
1.95,0.8503374417773193
1.952,0.8463217246985743
1.954,0.8949281558076723
1.956,0.9246654704045876
1.958,0.9269004529709403
1.96,1.0037820165364675
1.962,0.9443242529238473
1.964,0.9781797600034245
1.966,0.9509530935840391
1.968,0.9592548091090882
1.97,0.9576365403951468
1.972,0.9545047579642391
1.974,0.9138323847450656
1.976,0.898063694012638
1.978,0.8777137567622683
1.98,0.8412634612104816
1.982,0.7812185339690215
1.984,0.7498796057170266
1.986,0.6857709691428715
1.988,0.6568898716196898
1.99,0.5885191380407625
1.992,0.5492206937529565
1.994,0.5100266561231004
1.996,0.44935243323032525
1.998,0.4397289325177468
2.0,0.36429015073150534
2.0020000000000002,0.32206208813867443
2.004,0.2851246262262667
2.0060000000000002,0.23816120075450364
2.008,0.24218227545364637
2.0100000000000002,0.17060533406835582
2.012,0.14197581750365107
2.0140000000000002,0.11525683273979735
2.016,0.10793767834770276
2.0180000000000002,0.04613244014022186
2.02,0.06936063537551669
2.0220000000000002,-0.005107098828511354
2.024,-0.002697636795804547
2.0260000000000002,0.007917447235711122
2.028,-0.0027554113937345933
2.0300000000000002,0.015898682743699787
2.032,-0.012205852968507729
2.0340000000000003,0.02768449835473915
2.036,0.016098327854198364
2.0380000000000003,0.006026873741487793
2.04,-0.005737186768740011
2.0420000000000003,-0.032255772648487155
2.044,-0.019712009775733265
2.0460000000000003,-0.013163778074439384
2.048,-0.002031419711082394
2.05,0.0008562479009500239
2.052,0.03985322571795575
2.054,-0.02931081807582029
2.056,0.0001592807625416439
2.058,-0.011036205345056057
2.06,0.0014612678217074716
2.062,-0.008229126175268614
2.064,-0.0030815208074095454
2.066,0.004852376106768464
2.068,-0.018642359651239972
2.07,0.005001208765607127
2.072,0.011418894949727951
2.074,-0.005914356312307157
2.076,0.014713975881840095
2.078,0.026600752855192502
2.08,0.025024270942044877
2.082,0.016957333489695754
2.084,0.028739413655417743
2.086,-0.02139447535533134
2.088,0.0050514380006139335
2.09,-0.0023584559151001417
2.092,0.024488790488546987
2.094,0.05213623669609787
2.096,0.00695669125235762
2.098,0.037395263285621906
2.1,0.02699463068208386
2.102,0.023521490957626585
2.104,0.022661415772056753
2.106,9.230482591598277e-05
2.108,0.03474375032968858
2.11,0.046621230347768744
2.112,0.049144665744502505
2.114,0.01772626486464956
2.116,-0.012785069404586959
2.118,0.03643805821047021
2.12,0.015068596386646139
2.122,-0.04736284471847949
2.124,0.02302631660285055
2.126,0.018744899846718642
2.128,0.049572106499205904
2.13,0.013348527129121027
2.132,-0.0046091303284317535
2.134,0.015679970107933917
2.136,0.0013277079132027307
2.138,0.0037054031121798326
2.14,0.02071880443033787
2.142,0.014227906409336074
2.144,0.030119002035466587
2.146,0.025784288560874634
2.148,-0.006381020464161835
2.15,0.03434870376987402
2.152,0.03786483941678598
2.154,0.04298484217417647
2.156,0.006496027250974441
2.158,0.040006182497372235
2.16,0.020151691870838845
2.162,0.056360015019880735
2.164,0.010752117278528261
2.166,-0.007017795922325612
2.168,0.040130685064619025
2.17,-0.0011843582141120752
2.172,0.0001218509958733141
2.174,-0.014872538179064
2.176,0.03948260846077124
2.178,0.01667026861071611
2.18,0.021139314718734363
2.182,0.001960760794989894
2.184,0.013843075577099693
2.186,-0.020912455230121637
2.188,-0.002911999090924239
2.19,-0.007149252254041059
2.192,-0.016472563890968708
2.194,-0.001325658422454662
2.196,0.013141534540767542
2.198,-0.0046833158013468434
2.2,0.023748243311988944
2.202,0.018017946566144066
2.204,0.019467584021846087
2.206,-0.002312648999968671
2.208,0.02227334578413144
2.21,0.013797288822907004
2.212,-0.016964906975393084
2.214,0.00034758491990524373
2.216,0.019252491249536242
2.218,-0.014360954937305055
2.22,0.029697586570140003
2.222,-0.014877757976174417
2.224,-0.017729719371854573
2.226,-0.027467049471385313
2.228,0.008829922835364372
2.23,0.012788623015491732
2.232,0.0047586823069985795
2.234,-0.001074682803014683
2.236,-0.0411413260641571
2.238,-0.01140243809567628
2.24,-0.005503808584940234
2.242,-0.027145399116501857
2.244,-0.05606734905914307
2.246,-0.02700746058352601
2.248,-0.03895358477226951
2.25,-0.08321442693906661
2.2520000000000002,-0.035165783630807204
2.254,-0.009203631659554179
2.2560000000000002,-0.025586701319943936
2.258,-0.05362506376688971
2.2600000000000002,-0.09770461777285946
2.262,-0.08534891033152728
2.2640000000000002,-0.0606292919598215
2.266,-0.006640072277293227
2.2680000000000002,-0.0687021078560607
2.27,-0.073998175402477
2.2720000000000002,-0.04161963313199908
2.274,-0.12559663042290148
2.2760000000000002,-0.09930816468852627
2.278,-0.0757703312846428
2.2800000000000002,-0.08613347014238663
2.282,-0.08287307877010773
2.2840000000000003,-0.10706198752714104
2.286,-0.09899607761115131
2.2880000000000003,-0.1250288143911743
2.29,-0.10230974277217052
2.2920000000000003,-0.0820070672448935
2.294,-0.06599147820802873
2.2960000000000003,-0.11946880391199133
2.298,-0.11404277326611229
2.3000000000000003,-0.14525219879418652
2.302,-0.13084023105336784
2.3040000000000003,-0.09717480926720348
2.306,-0.10956580101726808
2.308,-0.10592039778389621
2.31,-0.07738639255139457
2.312,-0.11797210139707628
2.314,-0.11227352259472692
2.316,-0.10357030127433543
2.318,-0.10292206159647088
2.32,-0.10094457790938213
2.322,-0.09357022362743558
2.324,-0.09925458221326136
2.326,-0.10711894251499271
2.328,-0.13438746245143623
2.33,-0.11037656690385539
2.332,-0.08537180005731736
2.334,-0.13531695720797868
2.336,-0.11045445266375241
2.338,-0.10217359960445481
2.34,-0.07974553028810977
2.342,-0.09399689544497462
2.344,-0.068814244796473
2.346,-0.06783198411712751
2.348,-0.061456238623166584
2.35,-0.103407359349487
2.352,-0.10588218730215265
2.354,-0.07738805445556962
2.356,-0.07880516544400915
2.358,-0.0743126759133079
2.36,-0.029556850574672333
2.362,-0.036070884982444346
2.364,-0.06639657495721871
2.366,-0.06384936797201891
2.368,-0.0322441953158088
2.37,-0.04129338206861293
2.372,-0.017759618256406373
2.374,-0.015249502240385765
2.376,-0.03735009165711555
2.378,-0.02519702432001346
2.38,-0.01066836401856762
2.382,-0.04471588097357289
2.384,0.01842435940879432
2.386,-0.03932992837572653
2.388,-0.017301044105084706
2.39,-0.0018517057260817801
2.392,-0.027267010198303736
2.394,-0.04128200427837209
2.396,-0.017531987854396094
2.398,-0.04134317160122719
2.4,-0.009167146297051322
2.402,0.016390874093508298
2.404,0.02325087381117042
2.406,0.016969838628381743
2.408,0.033996085997118355
2.41,0.040438931923472164
2.412,0.013250410625358457
2.414,0.020268894595689292
2.416,0.005750756868186713
2.418,0.07451978539734931
2.42,0.033529767343093375
2.422,0.04368266581928721
2.424,0.004482123832882198
2.426,-0.00305110341104994
2.428,0.03233133565672049
2.43,0.021450026136408454
2.432,0.0731600769634686
2.434,0.030887702819999013
2.436,0.02410528342260289
2.438,0.04302236359421192
2.44,0.015470668299809876
2.442,0.025058512039328202
2.444,-0.007415459455148023
2.446,0.07573233020039533
2.448,0.004927685805870828
2.45,0.04092832191438964
2.452,0.05942911921996182
2.454,0.05259640924282738
2.456,0.04730481208807779
2.458,0.07173470424942371
2.46,0.022862043251101628
2.462,0.04209341032536771
2.464,0.037321988858028725
2.466,0.05450374870564723
2.468,0.040744052691869856
2.47,0.0850234273867471
2.472,0.054850757482076136
2.474,0.05915867898204865
2.476,0.03866914618257141
2.478,0.06690403291204591
2.48,0.049521067812227565
2.482,0.06791804332497013
2.484,0.020539228203194444
2.486,0.061793456393774045
2.488,0.025608193555444518
2.49,0.03021982151876907
2.492,0.0197744016605091
2.494,0.059960167085351776
2.496,0.03389873271799508
2.498,0.03233060713495715
2.5,0.06811193401502671
2.5020000000000002,0.0905905465153926
2.504,0.055686499466309214
2.5060000000000002,0.06252678818920059
2.508,0.07223286671287885
2.5100000000000002,0.03145689615741314
2.512,-0.021659864541474592
2.5140000000000002,0.016693178456514225
2.516,0.03622535216574939
2.5180000000000002,0.06808456135147968
2.52,0.039785888933286134
2.5220000000000002,0.0866014929137822
2.524,0.05908210080356612
2.5260000000000002,0.05248221078440392
2.528,0.059709581726720175
2.5300000000000002,0.019105074747240613
2.532,0.07450811622606358
2.5340000000000003,0.05024963085015154
2.536,0.04944951671289452
2.5380000000000003,0.04852806939620446
2.54,0.018357624332310973
2.5420000000000003,0.07375313857091705
2.544,0.04935212426976188
2.5460000000000003,0.0835472850205718
2.548,0.04614547421533295
2.5500000000000003,0.020545556660135876
2.552,0.032980757628820113
2.5540000000000003,0.04429294775534401
2.556,0.03539662101262909
2.5580000000000003,0.05433795409225676
2.56,0.03098196958993131
2.562,0.07227745767151295
2.564,0.02615724695185054
2.566,0.0635213566744141
2.568,0.04739667786002447
2.57,0.07502337227461454
2.572,0.009466220004554804
2.574,0.04276607323917152
2.576,0.043964654933290236
2.578,-0.00795876174421424
2.58,0.06738234651419599
2.582,0.04214478955868592
2.584,0.08279905171142551
2.586,0.04474607246126515
2.588,0.04947753723310732
2.59,0.04398598338190504
2.592,0.060509648247471626
2.594,0.04867976028321666
2.596,0.03185253755614291
2.598,0.07228565655946664
2.6,0.029111136857732627
2.602,0.04621603721983
2.604,0.03212492123996222
2.606,0.05123637318748473
2.608,0.05933995132436537
2.61,0.08679809931726322
2.612,0.09796815554727488
2.614,0.04340562429336406
2.616,0.07535210016934091
2.618,0.04006831037623321
2.62,0.025097745172085205
2.622,0.08282591452154416
2.624,0.07836489049671537
2.626,0.0808242545948239
2.628,0.11111739079640243
2.63,0.12497233826695758
2.632,0.07628497848267857
2.634,0.07472383966697588
2.636,0.09970279828846959
2.638,0.08552812830193668
2.64,0.08097635842737189
2.642,0.08781185583973684
2.644,0.10406305115301939
2.646,0.12010683014922785
2.648,0.10783418693669852
2.65,0.11097817349172692
2.652,0.12788690597464272
2.654,0.15328400467534015
2.656,0.11424536381335519
2.658,0.1649756308057069
2.66,0.12357655958912826
2.662,0.13651788483561503
2.664,0.1099488910173485
2.666,0.14790763037158844
2.668,0.14036078194865276
2.67,0.1495731636197234
2.672,0.12455994949118718
2.674,0.1599341267255523
2.676,0.13998860339030872
2.678,0.14632187904049068
2.68,0.17446695129868972
2.682,0.14563578451836945
2.684,0.13951080892229467
2.686,0.11876354136987073
2.688,0.12376343393132616
2.69,0.13310087657203534
2.692,0.1311418761034892
2.694,0.13893770607525904
2.696,0.12030597268841783
2.698,0.14236714604848907
2.7,0.10721295313184517
2.702,0.07899808687430725
2.704,0.0935701037264756
2.706,0.11303110119615681
2.708,0.06950830192482611
2.71,0.09418941199654104
2.712,0.0672684892850867
2.714,0.05278625011318115
2.716,0.10302629787063794
2.718,0.07179751911558302
2.72,0.07940919912762921
2.722,0.06907905934694211
2.724,0.08111809629187125
2.726,0.03174736344935569
2.728,0.08426656463064261
2.73,0.023973532590246614
2.732,-0.0002878708922924682
2.734,0.030066466026642598
2.736,0.036792406066245564
2.738,0.020807441844296816
2.74,-0.005167265123624601
2.742,0.008640359116870729
2.744,-0.03498276631783144
2.746,-0.01292271264232566
2.748,-0.04731143815537624
2.75,-0.06267190044394605
2.7520000000000002,-0.05189849509264902
2.754,-0.044020577774910294
2.7560000000000002,-0.0730823952108746
2.758,-0.03139787345998227
2.7600000000000002,-0.023275767629117476
2.762,-0.014185785263194459
2.7640000000000002,-0.02246479265484594
2.766,-0.0334684705823638
2.7680000000000002,0.0029432553287785726
2.77,0.03132403059783709
2.7720000000000002,0.02222436667778175
2.774,0.10961587581211682
2.7760000000000002,0.10185169361849802
2.778,0.17615971014334064
2.7800000000000002,0.2089993218950069
2.782,0.2265669304455521
2.7840000000000003,0.24191906679308905
2.786,0.30111385264894297
2.7880000000000003,0.40774059745087265
2.79,0.43118531657502585
2.7920000000000003,0.4794348567985452
2.794,0.557220005058653
2.7960000000000003,0.588413480673256
2.798,0.6525954592201205
2.8000000000000003,0.7013491392446611
2.802,0.7443744986568581
2.8040000000000003,0.8311558728587423
2.806,0.789347547266124
2.8080000000000003,0.9094856460577021
2.81,0.8589462439484626
2.8120000000000003,0.9332636355130717
2.814,0.9730647949997697
2.816,0.9539238470987429
2.818,0.9861980273519431
2.82,1.0030140873491684
2.822,1.0570841248620142
2.824,1.0381326574678407
2.826,0.9929601343199042
2.828,0.9876545016965284
2.83,0.97752353572366
2.832,0.9552398568130186
2.834,0.8594200154735379
2.836,0.8929497925691915
2.838,0.8331940804591641
2.84,0.7915090926688371
2.842,0.7471817753962512
2.844,0.7075511249935438
2.846,0.6427621620003862
2.848,0.6405349985846773
2.85,0.5285770178694532
2.852,0.5182985388872013
2.854,0.4678618998227909
2.856,0.44800754524143166
2.858,0.3945952664994371
2.86,0.32669375060883193
2.862,0.30753993266628515
2.864,0.2439642943124532
2.866,0.2060659529726121
2.868,0.19337948527242585
2.87,0.12804973764630817
2.872,0.09358378984148083
2.874,0.09568579930575821
2.876,0.10315078798528055
2.878,0.06086130100461157
2.88,0.05436074251863432
2.882,0.030271502884735887
2.884,0.025680670774661428
2.886,-0.0010647387262757522
2.888,0.0059564145437650175
2.89,-0.007020548404719971
2.892,-0.05443489988538139
2.894,-0.02117518587451556
2.896,-0.018250858570239014
2.898,0.0042519359173319865
2.9,0.0027879480013104675
2.902,-0.005856066023188604
2.904,-0.01754376222944535
2.906,0.008930585437893735
2.908,0.007566227285426627
2.91,0.022083130393805273
2.912,0.0038601227258927735
2.914,-0.002182366113460804
2.916,0.0026880300973721964
2.918,0.005245701466957555
2.92,0.02530626056497852
2.922,-0.030753987638008507
2.924,0.023009339681084498
2.926,-0.049972460092777435
2.928,0.015512589365514268
2.93,0.024204656102608087
2.932,-0.0060112995432077595
2.934,-0.02176820233750235
2.936,0.021441125679138622
2.938,-0.005481579717509297
2.94,0.023959575777955343
2.942,0.02679750733424004
2.944,0.010488327518369589
2.946,0.023166389828051526
2.948,0.01612350158265869
2.95,0.017152495307611464
2.952,0.010726610600218114
2.954,0.007532098116301896
2.956,0.017718367696457574
2.958,0.0008438431634412008
2.96,-0.0011559980261204195
2.962,0.006493600917896626
2.964,0.006860304499446082
2.966,-0.028352778633430928
2.968,0.022361193616897652
2.97,-0.017378552444818042
2.972,0.015910690873876723
2.974,0.006022197174727997
2.976,0.006217725719266282
2.978,0.01428310761490134
2.98,-0.02188733977086488
2.982,-0.01666089107130244
2.984,-0.015399710710928887
2.986,-0.012633877755579706
2.988,-0.014324525110648594
2.99,0.006529296996065789
2.992,-0.033564028381217116
2.994,0.012238213372520219
2.996,-0.014789504113238634
2.998,0.005968980332633188
3.0,0.027817870555277603
3.0020000000000002,0.032800427535452946
3.004,-0.012193014734972194
3.0060000000000002,-0.019690946150277104
3.008,0.00034079562068735705
3.0100000000000002,-0.030503191972219974
3.012,-0.010691074374532272
3.0140000000000002,0.009969859814523665
3.016,0.0027517330254771028
3.0180000000000002,0.012258194680790481
3.02,-0.026754502786066267
3.0220000000000002,-0.023022370217780617
3.024,-0.025298815199780708
3.0260000000000002,0.02761680786406186
3.028,-0.007441338315302976
3.0300000000000002,-0.023985182590680963
3.032,-0.012056870681926396
3.0340000000000003,0.011735576742595403
3.036,0.0007734678653956873
3.0380000000000003,-0.005032296697107346
3.04,-0.004089978953050306
3.0420000000000003,-0.01687510544090679
3.044,0.00451841823253242
3.0460000000000003,-0.03598300927299937
3.048,-0.021993074543642986
3.0500000000000003,-0.018452721976388125
3.052,-0.017360784741579784
3.0540000000000003,-0.009487247702844315
3.056,-0.03125696178460451
3.0580000000000003,0.0029412327806122747
3.06,-0.02182168779800541
3.0620000000000003,-0.05447379387255867
3.064,-0.014591106405674917
3.0660000000000003,-0.035176423754431196
3.068,-0.013261560659174531
3.0700000000000003,-0.040175185625335806
3.072,-0.014102665980917747
3.074,-0.08870909060113627
3.076,-0.04576945372281041
3.078,-0.07722390283985495
3.08,-0.0576140114510457
3.082,-0.06597343166702879
3.084,-0.02044481649103373
3.086,-0.021583447783337595
3.088,-0.05180218890926497
3.09,-0.06674312771540242
3.092,-0.11475498401203424
3.094,-0.08401394385118652
3.096,-0.07536512251622617
3.098,-0.08291280618342212
3.1,-0.07431870795785551
3.102,-0.11112068082919555
3.104,-0.10556439650811685
3.106,-0.1056724017742823
3.108,-0.13379698232013149
3.11,-0.09606621689187796
3.112,-0.07669637851073202
3.114,-0.0883368570883765
3.116,-0.13606350219577337
3.118,-0.1645086203906205
3.12,-0.146024513309473
3.122,-0.14494318265499756
3.124,-0.13567229283957202
3.126,-0.13863366392072698
3.128,-0.1323461127463052
3.13,-0.13683458141470398
3.132,-0.13932405970246622
3.134,-0.1332087422648242
3.136,-0.14219410463374116
3.138,-0.14748978229111254
3.14,-0.15761014823582703
3.142,-0.1618565645416107
3.144,-0.12636331180335686
3.146,-0.12120985314062174
3.148,-0.13031889795945217
3.15,-0.15063460089347563
3.152,-0.16055389159831723
3.154,-0.14274958915608754
3.156,-0.16422951551799503
3.158,-0.1427211673348083
3.16,-0.1883677604225928
3.162,-0.18423264188959826
3.164,-0.19184408140949274
3.166,-0.177332016536304
3.168,-0.1392491709965833
3.17,-0.186633713214136
3.172,-0.18468011752390984
3.174,-0.19469377544288963
3.176,-0.17020782982660182
3.178,-0.16118692684614533
3.18,-0.1699210654549398
3.182,-0.15653412479375095
3.184,-0.1497142335477719
3.186,-0.21706247654032834
3.188,-0.2000694459499637
3.19,-0.1765204822778212
3.192,-0.1354909366993346
3.194,-0.2001850159856911
3.196,-0.15240734051497593
3.198,-0.18165465880363324
3.2,-0.14471961919981147
3.202,-0.1795242327535615
3.204,-0.1509485080015008
3.206,-0.1729410615731145
3.208,-0.15976385197823378
3.21,-0.15598632985505012
3.212,-0.12530264037853178
3.214,-0.13311160918914933
3.216,-0.16868078118403387
3.218,-0.13345072893407606
3.22,-0.13575039076926995
3.222,-0.10822559640171985
3.224,-0.14098886950108452
3.226,-0.10508416672623093
3.228,-0.09359823398228022
3.23,-0.12638735523564396
3.232,-0.13154813560469059
3.234,-0.11051241311425174
3.236,-0.09284058138143227
3.238,-0.10292110790062398
3.24,-0.12980514439632174
3.242,-0.13313014343303708
3.244,-0.12314345381197113
3.246,-0.10355396599361506
3.248,-0.056452419712302575
3.25,-0.10177574597978573
3.2520000000000002,-0.08932591145706759
3.254,-0.09473465625430935
3.2560000000000002,-0.11642528309961428
3.258,-0.08003657434565958
3.2600000000000002,-0.08845432784390683
3.262,-0.07006227641677014
3.2640000000000002,-0.08505226906201885
3.266,-0.07556963812137309
3.2680000000000002,-0.04460893886056204
3.27,-0.029202833824805985
3.2720000000000002,-0.07673666330275905
3.274,-0.05656861891745664
3.2760000000000002,-0.06565002711738761
3.278,-0.08135496318581646
3.2800000000000002,-0.055347029204510366
3.282,-0.05001905948770505
3.2840000000000003,-0.04729683024549659
3.286,-0.0492412201727319
3.2880000000000003,-0.05706502412675252
3.29,-0.055430544338650856
3.2920000000000003,-0.025120936125169878
3.294,-0.048683462881408616
3.2960000000000003,-0.06365671610797925
3.298,-0.045879011888990934
3.3000000000000003,-0.04207850144720818
3.302,-0.05536485702109262
3.3040000000000003,-0.05498052489911515
3.306,-0.050906347211439155
3.3080000000000003,-0.02541454073405177
3.31,-0.04368590668656892
3.3120000000000003,-0.03382307665887534
3.314,-0.035848567909577626
3.3160000000000003,-0.06388544667368615
3.318,-0.049018968956245766
3.3200000000000003,-0.05281016622488024
3.322,-0.07591984862892867
3.3240000000000003,-0.046901090557660584
3.326,-0.0619925245092945
3.3280000000000003,-0.05340494231763919
3.33,-0.05769333641430746
3.332,-0.07421457365203189
3.334,-0.05904632356913422
3.336,-0.0660245698152893
3.338,-0.020391147182295885
3.34,-0.01612135122213704
3.342,-0.032963312601203866
3.344,-0.011523850566935938
3.346,-0.047492643941232
3.348,-0.05208704889854715
3.35,-0.06147488125232825
3.352,-0.05159171693566221
3.354,-0.02499193833023869
3.356,-0.046745089927375076
3.358,-0.016901623592835438
3.36,-0.019821718140320008
3.362,-0.04736137599162388
3.364,-0.06785428533117412
3.366,-0.051050868207037886
3.368,-0.050484509795406515
3.37,-0.04573677687898933
3.372,-0.05786428268278099
3.374,-0.06928759351038755
3.376,-0.03678705161747023
3.378,-0.08875467314132514
3.38,-0.034698893907855466
3.382,-0.08785956789536639
3.384,-0.04585005574516281
3.386,-0.035217551301202854
3.388,-0.05766850869094688
3.39,-0.057054006554878516
3.392,-0.05903981528326531
3.394,-0.020029376117124482
3.396,-0.03658923687034859
3.398,-0.0736689535417588
3.4,-0.0430465765843455
3.402,-0.028462570366656264
3.404,-0.05432997099436063
3.406,-0.06524657892285293
3.408,-0.052098766856260775
3.41,-0.07522512027807729
3.412,-0.011462445505650653
3.414,-0.04693821655021937
3.416,-0.05975514448339408
3.418,-0.03717329948870541
3.42,-0.04315457549947745
3.422,-0.017966572894482825
3.424,-0.06580389858821636
3.426,-0.024697588497134302
3.428,-0.05219139874496267
3.43,-0.05994836148170211
3.432,-0.06989859516822605
3.434,-0.054619918274666786
3.436,-0.08789843816553898
3.438,-0.03223812635570437
3.44,-0.053327446285307015
3.442,-0.032238484524130556
3.444,-0.027554462561151773
3.446,-0.03896261954842487
3.448,-0.05737913775372936
3.45,-0.03437829939333571
3.452,-0.032852013363827044
3.454,-0.051749936536150926
3.456,-0.050018059496373446
3.458,-0.0412688882449551
3.46,-0.05784507530225365
3.462,-0.02988157142380007
3.464,-0.03539745433422152
3.466,-0.03618757170285752
3.468,-0.02253095037993861
3.47,-0.016584700215748253
3.472,-0.042850420699151064
3.474,-0.052594325497404705
3.476,-0.02201938812061098
3.478,-0.02214720393695664
3.48,-0.012360702372698477
3.482,0.019035066826685956
3.484,-0.024135249963395528
3.486,0.001339751247782725
3.488,0.006102603368894816
3.49,-0.028512261607809203
3.492,-0.02033255458823246
3.494,0.008134374298051666
3.496,0.028020266515774786
3.498,0.03955167645026615
3.5,-0.029668770271067957
3.5020000000000002,0.02416190453402802
3.504,0.04357336964779655
3.5060000000000002,0.013559423415957214
3.508,0.03989044554502847
3.5100000000000002,0.04517723538270241
3.512,0.05332186269134359
3.5140000000000002,0.008581811072240389
3.516,0.028342643664718142
3.5180000000000002,0.029441993767215013
3.52,0.09163686455014017
3.5220000000000002,0.05825315666871454
3.524,0.053824398612541645
3.5260000000000002,0.047386121338149984
3.528,0.058911608898804466
3.5300000000000002,0.06652985444878978
3.532,0.019066490896464533
3.5340000000000003,0.07102228680581917
3.536,0.019268363286676776
3.5380000000000003,0.03213012008558358
3.54,0.02614966630916045
3.5420000000000003,0.019855779942163393
3.544,0.031743050836269604
3.5460000000000003,0.06778043784113716
3.548,0.060896011829181654
3.5500000000000003,0.020222961100939144
3.552,0.036416644232745474
3.5540000000000003,0.009174411240073968
3.556,0.0018282950718512408
3.5580000000000003,0.03858386972509738
3.56,-0.0038081751122764074
3.5620000000000003,0.062091218002913076
3.564,0.004591121145010493
3.5660000000000003,0.004801361968749779
3.568,0.01008387366182572
3.5700000000000003,0.017758980585912975
3.572,-0.02638582905556297
3.5740000000000003,-0.03262142996829395
3.576,0.013106261817738912
3.5780000000000003,-0.017905254241592325
3.58,-0.025030848983374925
3.5820000000000003,-0.02800576095574228
3.584,-0.042256525653543875
3.586,-0.05327644526011963
3.588,-0.035302017115745446
3.59,-0.08419946913951408
3.592,-0.06496234357122611
3.594,-0.07097481337317761
3.596,-0.10408772029212547
3.598,-0.09648950951396568
3.6,-0.0920942578758571
3.602,-0.09246065031229163
3.604,-0.10278060004913805
3.606,-0.12635733657252
3.608,-0.09389761496076914
3.61,-0.14415804940754007
3.612,-0.11597099145824971
3.614,-0.10396059896311649
3.616,-0.09966271005394615
3.618,-0.10982880312998501
3.62,-0.09448481372500897
3.622,-0.10860938822435323
3.624,-0.08414426838997138
3.626,-0.0468038325282987
3.628,-0.024255536592874404
3.63,-0.0023411434129790368
3.632,0.030862741407292123
3.634,0.054572592564823115
3.636,0.05691093965166591
3.638,0.12938840231572007
3.64,0.19908067802008955
3.642,0.22279504669262118
3.644,0.3026844633028645
3.646,0.3644579690370874
3.648,0.3509289804719624
3.65,0.4443977106015585
3.652,0.47586941992406306
3.654,0.5307270181242735
3.656,0.5984628357137618
3.658,0.6653689324446319
3.66,0.7017406013376163
3.662,0.7755147938894936
3.664,0.7772461084282543
3.666,0.830736834822864
3.668,0.848595966573282
3.67,0.9067952932259251
3.672,0.9044685051609028
3.674,0.9347181295070505
3.676,0.9374670599798064
3.678,0.9203884380635172
3.68,0.9369123669536845
3.682,0.9507772995669558
3.684,0.925496819116491
3.686,0.8694143557746814
3.688,0.8895654411127025
3.69,0.85423749505823
3.692,0.8159869421601542
3.694,0.7932799655664274
3.696,0.7730505618237745
3.698,0.7228861090675989
3.7,0.6876974289972949
3.702,0.6268713582647158
3.704,0.5625738007310156
3.706,0.5138255174794569
3.708,0.4998718593873943
3.71,0.4557948446182446
3.712,0.40948315644571254
3.714,0.35611540128790115
3.716,0.2456549114876873
3.718,0.24586413762499726
3.72,0.24541979262360203
3.722,0.20385016120862795
3.724,0.13426465510631258
3.726,0.11589360340972554
3.728,0.08627732496315574
3.73,0.06325640811519007
3.732,0.032770204520659714
3.734,0.018108323996772167
3.736,-0.018022867777955337
3.738,-0.04219133928968926
3.74,-0.007454439548340901
3.742,-0.03145109034827304
3.744,-0.04644229240486619
3.746,-0.05266490709277198
3.748,-0.0615667500274123
3.75,-0.0016218721733256246
3.7520000000000002,-0.04615980909559592
3.754,-0.04195009351299571
3.7560000000000002,-0.06800471657379337
3.758,-0.04453491906264649
3.7600000000000002,-0.08124335041129045
3.762,-0.04802917584951332
3.7640000000000002,-0.060181785027306506
3.766,-0.033153134650775296
3.7680000000000002,-0.030715071517981495
3.77,-0.021260818319460813
3.7720000000000002,-0.03450254163968916
3.774,-0.04980743918272914
3.7760000000000002,-0.01517833738520022
3.778,-0.023326200696585624
3.7800000000000002,-0.022711059824841513
3.782,-0.04145396333412425
3.7840000000000003,-0.03829205062164088
3.786,-0.03567174691665197
3.7880000000000003,0.005455360438256189
3.79,-0.0031996066690346487
3.7920000000000003,-0.04750340413565445
3.794,-0.007211335005194974
3.7960000000000003,-0.08497384248281538
3.798,-0.04876672855732793
3.8000000000000003,-0.024214229453723472
3.802,-0.045440268567836825
3.8040000000000003,-0.00019911247318336571
3.806,-0.048109870575101105
3.8080000000000003,0.0008507415965015575
3.81,-0.04391962969353154
3.8120000000000003,-0.019564348483034715
3.814,-0.05635025004575644
3.8160000000000003,0.008102119441811264
3.818,0.003663708898582667
3.8200000000000003,-0.0090898160407277
3.822,-0.04775503061164841
3.8240000000000003,-0.07532918067304609
3.826,-0.01682877315967144
3.8280000000000003,-0.05775344709277571
3.83,0.002848565605633633
3.8320000000000003,-0.003386070265092027
3.834,-0.045886852537007236
3.8360000000000003,0.017223631738635788
3.838,-0.05006067317488797
3.84,-0.040558524910070726
3.842,-0.035412208383831294
3.844,-0.03265850771709894
3.846,-0.025352776240901643
3.848,-0.01592959946476569
3.85,-0.004147990282933427
3.852,-0.022397080004184323
3.854,-0.008467500429545182
3.856,-0.014556196278876677
3.858,-0.019979635964891187
3.86,-0.03264481007034077
3.862,-0.040622764111863274
3.864,-0.028684358207905734
3.866,0.020136425926778032
3.868,-0.05729593101396448
3.87,0.012540064062230464
3.872,-0.019632155445269778
3.874,-0.019904199394100288
3.876,-0.016668178527053053
3.878,-0.04222851946597555
3.88,-0.028397992973317576
3.882,0.0012497148859240007
3.884,0.012202719544130103
3.886,-0.01962949983241951
3.888,-0.007660072827984536
3.89,-0.008939568274233365
3.892,-0.014430612151952607
3.894,-0.0032595644558325934
3.896,-0.036484389678691595
3.898,-0.007913344600052396
3.9,0.002170393956319778
3.902,-0.017368655471870036
3.904,-0.033278208450443963
3.906,-0.06761408153241008
3.908,-0.030457349294219588
3.91,-0.019533774354432286
3.912,-0.04460849450458608
3.914,-0.01674240267939843
3.916,-0.02438022485653548
3.918,-0.025404399465504365
3.92,-0.015363520614537721
3.922,-0.0030583083687652154
3.924,-0.0905782975161338
3.926,-0.05363335451659282
3.928,-0.03928344431293376
3.93,-0.01789892582027492
3.932,-0.08835371850680179
3.934,-0.04128604416281865
3.936,-0.06919921758476649
3.938,-0.06459313840626603
3.94,-0.06208819588809052
3.942,-0.06629584993860839
3.944,-0.03265697137744898
3.946,-0.06375997064835681
3.948,-0.08442488666569209
3.95,-0.06198225531953799
3.952,-0.07844740217169371
3.954,-0.07005052616075921
3.956,-0.060370073034000236
3.958,-0.10367543515438077
3.96,-0.10730194953221223
3.962,-0.11521284956513012
3.964,-0.09621229748601966
3.966,-0.09928560261638042
3.968,-0.12649238847862568
3.97,-0.07441340900441898
3.972,-0.0787722033650111
3.974,-0.06141516806240661
3.976,-0.1256881932401845
3.978,-0.10253814455374949
3.98,-0.09019889337385413
3.982,-0.07988467563932365
3.984,-0.08129802527969719
3.986,-0.11727581684182357
3.988,-0.09889481519397708
3.99,-0.09779243939273002
3.992,-0.1265236048018517
3.994,-0.10614457748747533
3.996,-0.16950065883070756
3.998,-0.15760100992224443
4.0,-0.12463647153940093
4.002,-0.12305628908191986
4.0040000000000004,-0.14145742402055722
4.006,-0.14600092005970453
4.008,-0.127330096658222
4.01,-0.1436408620372291
4.0120000000000005,-0.17175017055736747
4.014,-0.1381292438179477
4.016,-0.13348303788469099
4.018,-0.1412723490041268
4.0200000000000005,-0.13747401118507105
4.022,-0.15869014297599204
4.024,-0.13999828326705363
4.026,-0.17838594001118516
4.0280000000000005,-0.15436254059303492
4.03,-0.13648194437491795
4.032,-0.11937724594191224
4.034,-0.14009176025255832
4.0360000000000005,-0.17099023964485893
4.038,-0.14280057707622346
4.04,-0.13628305866293106
4.042,-0.07328156550568961
4.0440000000000005,-0.1422531072417425
4.046,-0.13377971755802523
4.048,-0.12996493361735423
4.05,-0.12644341795943256
4.0520000000000005,-0.1443509481031377
4.054,-0.12141082889785099
4.056,-0.1315747721035658
4.058,-0.11981679434741495
4.0600000000000005,-0.12927506419294416
4.062,-0.09667020201711592
4.064,-0.10665234098727741
4.066,-0.12037476978966996
4.0680000000000005,-0.09394756143897824
4.07,-0.1264856882739774
4.072,-0.08233960814154548
4.074,-0.15269614766308232
4.0760000000000005,-0.08852731965497938
4.078,-0.09252352215649332
4.08,-0.08030429714581647
4.082,-0.06443679364196228
4.0840000000000005,-0.06275309194743506
4.086,-0.07999239802106321
4.088,-0.09364849365621049
4.09,-0.07958395272609356
4.0920000000000005,-0.05624302293776802
4.094,-0.07706531779006567
4.096,-0.030943699187953734
4.098,-0.031454491397566293
4.1,-0.07523299669345801
4.102,-0.08164174334981864
4.104,-0.05053793417614981
4.106,-0.04552426136919075
4.108,-0.02585393286378576
4.11,-0.03739538402669029
4.112,-0.05406377876634974
4.114,-0.02436636193941207
4.116,-0.04453424038189567
4.118,-0.009357476958509907
4.12,-0.005844286696210614
4.122,-0.007775971996350189
4.124,-0.035539900529740834
4.126,0.021168789492493463
4.128,0.009318317839065483
4.13,0.0406106542464992
4.132,-0.03000493628888718
4.134,-0.016383853211265273
4.136,-0.026159000299894607
4.138,0.004250821055608107
4.14,-0.03157367512676931
4.142,-0.01012552764522807
4.144,-0.011761814604308616
4.146,0.0067492891611096485
4.148,0.03834930092705961
4.15,0.06069099952434955
4.152,0.03175786772997694
4.154,0.04074817698245644
4.156,-0.024843053240966348
4.158,0.044578808036095124
4.16,0.016479371513142715
4.162,0.013851176096308466
4.164,0.00550394934212072
4.166,0.01812060796236139
4.168,0.005369910516574411
4.17,0.010981872580047354
4.172,4.290051647825709e-05
4.174,-0.007676753280524599
4.176,0.053036335940002066
4.178,0.0029900885600878512
4.18,0.012751502400608586
4.182,0.06191410875802078
4.184,-0.01860255549601808
4.186,0.06202143928949903
4.188,0.02462484868170038
4.19,0.027045077821477834
4.192,-0.019345610202048703
4.194,0.022695392009030813
4.196,0.02680717217445485
4.198,0.012520221958192327
4.2,0.01249139989076606
4.202,0.01338773844300416
4.204,0.040087220311747294
4.206,0.03285294241857315
4.208,0.04208344412791788
4.21,0.032391728094495795
4.212,0.038006833990121724
4.214,0.03950193449326994
4.216,0.04834711001174232
4.218,0.02974002244339411
4.22,0.023595447493228512
4.222,0.04302236350163789
4.224,0.019207112474079763
4.226,0.04048861129164557
4.228,0.0011857820866877384
4.23,0.028941985169046044
4.232,0.006058446630445356
4.234,0.020470511040465038
4.236,0.047613728928232554
4.238,0.030284458883432695
4.24,0.03449834067684168
4.242,-0.002985622105348329
4.244,0.012113657340862888
4.246,0.05587407241866837
4.248,0.014595814577438106
4.25,0.04733251069471214
4.252,0.048695620142642594
4.2540000000000004,0.05800944382873887
4.256,0.012885713889647796
4.258,0.04675772644490684
4.26,0.04308449574405897
4.2620000000000005,0.056697577120345906
4.264,0.03301241157409047
4.266,0.034804260450895866
4.268,0.059251132356150454
4.2700000000000005,0.056343179729976635
4.272,0.042645649011374825
4.274,0.04068571510306997
4.276,0.0319743325742822
4.2780000000000005,0.025335092581594502
4.28,0.035340963238397895
4.282,0.05601490202703654
4.284,0.02682496022182446
4.2860000000000005,0.053335112935222063
4.288,0.0403470323145466
4.29,0.011452703173710976
4.292,0.04330073690014706
4.2940000000000005,0.029188588744971055
4.296,0.059176431152640756
4.298,0.055920045327276326
4.3,0.05073469504785867
4.3020000000000005,0.044901339981298485
4.304,0.05871440154999924
4.306,0.07740762799336824
4.308,0.04790817601644027
4.3100000000000005,0.0803967294967083
4.312,0.0682573264628534
4.314,0.08910732407902294
4.316,0.06488068290361848
4.3180000000000005,0.08349376860123661
4.32,0.06443298874538497
4.322,0.044455308549621646
4.324,0.08650408634025872
4.3260000000000005,0.05622439719893181
4.328,0.06037970639386612
4.33,0.05072438350344141
4.332,0.08535441522834192
4.3340000000000005,0.09725914312241164
4.336,0.08052490163223115
4.338,0.09337993623812813
4.34,0.091683491901949
4.3420000000000005,0.08075666227016079
4.344,0.09041940080378352
4.346,0.08121140223194244
4.348,0.1074226073295749
4.3500000000000005,0.11729899304006143
4.352,0.12569426228869607
4.354,0.09518106802884224
4.356,0.14032961517312809
4.358,0.12438131826115878
4.36,0.11117182846462575
4.362,0.1458219557817068
4.364,0.09905371440502761
4.366,0.11126111472117678
4.368,0.1440952158361665
4.37,0.12214170349342302
4.372,0.12355092301925626
4.374,0.12618134436985706
4.376,0.13611938585384953
4.378,0.1047506825982584
4.38,0.1277662745212182
4.382,0.11609611031392947
4.384,0.11649772723966015
4.386,0.13529641540513948
4.388,0.13045458118216036
4.39,0.13255946955872394
4.392,0.1607725256491039
4.394,0.15472083563096273
4.396,0.12738533363091853
4.398,0.14443447456184294
4.4,0.12255310947148167
4.402,0.14051648071309383
4.404,0.13371135858598804
4.406,0.14637718193594673
4.408,0.16140209375292677
4.41,0.1693258590077968
4.412,0.1350466836323904
4.414,0.12082251513474282
4.416,0.11058463489198186
4.418,0.1206331857985438
4.42,0.1191390062141518
4.422,0.08922103748317348
4.424,0.08087851859003073
4.426,0.10336772780098591
4.428,0.08681576787418757
4.43,0.11467534787714895
4.432,0.09639571665416802
4.434,0.07301641763144345
4.436,0.06960779028882369
4.438,0.08058588547803042
4.44,0.045347192014479336
4.442,0.06240719643976759
4.444,0.06709177786128691
4.446,0.05483723784783825
4.448,0.05994596568321149
4.45,0.05245497149571498
4.452,0.04887320594080159
4.454,0.011970560359742373
4.456,0.006928847141859096
4.458,-0.0346759810043139
4.46,-0.04394113381242189
4.462,-0.01038280259352655
4.464,-0.021795602369943212
4.466,-0.02722188809435317
4.468,-0.012604093235099659
4.47,-0.009480138897609375
4.472,-0.05159586830227139
4.474,-0.0011357908931016458
4.476,0.008057539666505437
4.478,-0.017565245628425208
4.48,0.034946951120999166
4.482,0.018416811926125213
4.484,0.0733608282747567
4.486,0.028819981410765833
4.488,0.08723466550656322
4.49,0.11438966863391838
4.492,0.16807963563964146
4.494,0.24226981252864796
4.496,0.2355544418761773
4.498,0.2906813445718895
4.5,0.3802057002756223
4.502,0.3976707383559462
4.5040000000000004,0.40264967046416883
4.506,0.5198427880083453
4.508,0.5387037255175526
4.51,0.6483526581159279
4.5120000000000005,0.6579909702103501
4.514,0.6804843948531479
4.516,0.7647781120908357
4.518,0.8200609142020971
4.5200000000000005,0.8719752594753268
4.522,0.8936104487478308
4.524,0.9165966216208802
4.526,0.9862090539388277
4.5280000000000005,0.9922498566790561
4.53,1.0700937840942273
4.532,1.012832442479924
4.534,1.0673407437340106
4.5360000000000005,1.0017181885397082
4.538,1.0331595970893945
4.54,1.0146797033529402
4.542,1.011040774202431
4.5440000000000005,0.9820357135093365
4.546,0.9618770763876854
4.548,0.9297577121497991
4.55,0.8921334704930369
4.5520000000000005,0.8549653586286904
4.554,0.8479543627459839
4.556,0.7792199464671513
4.558,0.7013549478157185
4.5600000000000005,0.6971712487107948
4.562,0.6221147636318747
4.564,0.588632885254273
4.566,0.5656247698583282
4.5680000000000005,0.4824545066172175
4.57,0.4609000672631667
4.572,0.3959064292753525
4.574,0.3478879557084113
4.5760000000000005,0.2929472940965513
4.578,0.2780427165916074
4.58,0.2569978100749481
4.582,0.20559935663432238
4.5840000000000005,0.1981869879178064
4.586,0.14033379407444346
4.588,0.14085299875901214
4.59,0.08064311590708659
4.5920000000000005,0.04695999892894546
4.594,0.03663869270243282
4.596,0.08128136148457565
4.598,0.04945172804123608
4.6000000000000005,0.030904768186390014
4.602,0.05743057090925532
4.604,0.03900013526340797
4.606,0.06210889990954356
4.6080000000000005,0.012404570894214862
4.61,0.03509595501795061
4.612,-0.003954368894169471
4.614,0.04415709947251803
4.616,0.006696744331830495
4.618,0.034718957464583575
4.62,0.04129452761512793
4.622,0.038711093720609935
4.624,0.010598027495804543
4.626,0.0684138910652762
4.628,0.049949713454026476
4.63,0.07473787827266952
4.632,0.02563970284086378
4.634,0.025545836017617788
4.636,0.02799724523331553
4.638,0.04695841706941194
4.64,0.00507434975285878
4.642,0.029691211899075722
4.644,0.02475848103571293
4.646,0.059766144849434766
4.648,0.010040023948898759
4.65,0.06030425659207693
4.652,0.006776519457663664
4.654,0.061303326500272294
4.656,0.0601289191512999
4.658,0.03838336153532807
4.66,0.04083008924499092
4.662,0.031849237365234075
4.664,0.05963609332813413
4.666,0.06621501763978492
4.668,0.031370390882772436
4.67,0.019243886747749978
4.672,0.06549670100595979
4.674,0.07304841542205359
4.676,0.03369859591586674
4.678,0.07076616281024352
4.68,0.005011055723099338
4.682,0.03922647010859521
4.684,0.0694671129094635
4.686,0.03759297602310545
4.688,0.05210129779898513
4.69,0.01575793290768059
4.692,0.011621398997984615
4.694,-0.03158475010825177
4.696,0.027550300919675703
4.698,0.0630400724061884
4.7,0.05922089966012518
4.702,0.061539582813791065
4.704,0.04202665032083999
4.706,0.0007322424157587917
4.708,0.05830592047189093
4.71,0.04178951521564581
4.712,0.054321512022711745
4.714,0.03264824944510526
4.716,0.04217838551968596
4.718,0.016321737850404146
4.72,0.005138943198267359
4.722,0.023624827526254645
4.724,0.03970434521321613
4.726,0.0759571312480887
4.728,0.03808596543244012
4.73,0.05032662840817175
4.732,0.05314419106228214
4.734,0.030734490948282237
4.736,0.06113444642397631
4.738,0.029517042156721244
4.74,0.03874308032986022
4.742,0.03779080778748004
4.744,0.00596483380833074
4.746,-0.0005414449356043877
4.748,0.02280627693374533
4.75,-0.01312348477061974
4.752,0.058769733212612044
4.7540000000000004,0.023370529210738386
4.756,0.01231756465858899
4.758,0.03278411005487093
4.76,0.030287205388966926
4.7620000000000005,0.0202132976066077
4.764,0.02558321928110767
4.766,0.05278222166180828
4.768,0.010586773403242739
4.7700000000000005,0.018886441048355938
4.772,0.0016492620459366454
4.774,0.004917186924450895
4.776,-0.01071380390519799
4.7780000000000005,-0.0066905333057993635
4.78,-0.005950430753363892
4.782,0.026116566359229078
4.784,-7.557852046875813e-06
4.7860000000000005,-0.02135270068569729
4.788,-0.011289775597237664
4.79,0.003466668413062056
4.792,0.001966095271013636
4.7940000000000005,-0.01580320687196275
4.796,-0.01187807800680728
4.798,-0.0032397988461680197
4.8,0.008399560760154398
4.8020000000000005,-0.026923697716593233
4.804,-0.022572166076079484
4.806,-0.048188207182631476
4.808,-0.03149232973487126
4.8100000000000005,-0.059629350667334255
4.812,-0.03757595936932396
4.814,-0.036481750164448434
4.816,-0.053766049843897684
4.8180000000000005,-0.06662842820485478
4.82,-0.06579292364288189
4.822,-0.04780107176168984
4.824,-0.055073336026717545
4.8260000000000005,-0.056734770619552205
4.828,-0.08428413295981886
4.83,-0.0968479554570627
4.832,-0.09840524943467709
4.8340000000000005,-0.04914996694158885
4.836,-0.05973503570755273
4.838,-0.06488633277058489
4.84,-0.09429528706474043
4.8420000000000005,-0.0873571445954018
4.844,-0.09222401608421246
4.846,-0.12161735473158844
4.848,-0.12176098665522775
4.8500000000000005,-0.10134095784669181
4.852,-0.13693843055476185
4.854,-0.09267096406185393
4.856,-0.09201706860986111
4.8580000000000005,-0.07433799204648328
4.86,-0.11389121657157399
4.862,-0.13433651345279607
4.864,-0.1268919435866086
4.866,-0.13824808180926082
4.868,-0.13264014676956412
4.87,-0.13900256974026898
4.872,-0.0964707842685224
4.874,-0.13421559652541307
4.876,-0.1376880970647994
4.878,-0.1300620743740121
4.88,-0.11823783348624547
4.882,-0.1473145588293343
4.884,-0.13924224532096058
4.886,-0.11705280461167196
4.888,-0.12790362792097976
4.89,-0.12433759040712115
4.892,-0.10874840767528733
4.894,-0.14824542663143309
4.896,-0.12039082311888755
4.898,-0.09762309823763503
4.9,-0.10133662781963686
4.902,-0.13678214019844467
4.904,-0.16199687397740706
4.906,-0.12412312517154406
4.908,-0.13322337312060523
4.91,-0.1280023676462888
4.912,-0.12449785911977837
4.914,-0.11219598681683332
4.916,-0.11605550414732066
4.918,-0.1432025516305741
4.92,-0.08683859108829903
4.922,-0.10732401423898529
4.924,-0.11718704733110809
4.926,-0.08592861503291555
4.928,-0.07566017138854718
4.93,-0.10892804496462423
4.932,-0.1009422278268756
4.934,-0.11795691360745585
4.936,-0.1078219887044106
4.938,-0.11586803850037702
4.94,-0.10703871076898148
4.942,-0.048413446761442304
4.944,-0.048858785924105724
4.946,-0.08687542824265983
4.948,-0.08427538583727048
4.95,-0.06301559124593667
4.952,-0.06730155705602996
4.954,-0.06009897003635871
4.956,-0.062359167162219876
4.958,-0.034027771802215466
4.96,-0.0390696710400289
4.962,-0.06507571070526058
4.964,-0.04596015218487962
4.966,-0.07134423461909378
4.968,-0.07123095210304607
4.97,-0.059240469304218064
4.972,-0.04128273004441215
4.974,-0.0461114242639637
4.976,-0.03899324640725156
4.978,-0.030658518207883765
4.98,-0.07958478338959088
4.982,-0.043216329134413964
4.984,-0.04827861881979799
4.986,-0.04156118521949998
4.988,-0.00549225457902924
4.99,-0.03335687936701296
4.992,-0.05189414589872259
4.994,-0.03931781923925048
4.996,-0.03718871940157182
4.998,-0.031879388720228136
5.0,-0.035903995068776354
5.002,-0.026827241344718596
5.0040000000000004,0.013936628957097987
5.006,-0.009879785999145305
5.008,-0.006571241185609311
5.01,0.004214041600619431
5.0120000000000005,0.03327296507849317
5.014,-0.0048138189867087434
5.016,0.018364190664468243
5.018,0.0013589041458047114
5.0200000000000005,-0.021009251734430533
5.022,0.008227663463429145
5.024,-0.023366268042361048
5.026,0.005491388386825836
5.0280000000000005,-0.041356243250592374
5.03,0.029002139214139758
5.032,-0.03570697226974524
5.034,0.0020946595605045807
5.0360000000000005,-0.015734059422609293
5.038,-0.06453617234116256
5.04,-0.06410073770322314
5.042,0.006428146967973756
5.0440000000000005,-0.02060670341955924
5.046,-0.008414554112622328
5.048,-0.036846813778462925
5.05,0.00033626798832399373
5.0520000000000005,0.006448011401544605
5.054,0.01449546872749077
5.056,0.04419692335037023
5.058,0.007297565161529221
5.0600000000000005,-0.03811039712146504
5.062,-0.05026400792768594
5.064,0.040201480471710835
5.066,0.01367542918140066
5.0680000000000005,-0.010856864153719083
5.07,-0.01577956539569775
5.072,-0.025464806029907066
5.074,-0.010165859517665979
5.0760000000000005,-0.01517564566716859
5.078,-0.019085514794232247
5.08,-0.06576689861935608
5.082,0.005131563706296401
5.0840000000000005,0.0013354314548235117
5.086,-0.024385918959011623
5.088,-0.01855357836638601
5.09,-0.04938371159167312
5.0920000000000005,-0.008273616229154618
5.094,-0.01151626272741917
5.096,-0.0469763756044626
5.098,-0.035927430427970496
5.1000000000000005,-0.0032460821562583543
5.102,0.01119712241806068
5.104,-0.04931450548388291
5.106,-0.010440187433978971
5.1080000000000005,0.010346412128330092
5.11,-0.016521754632325806
5.112,-0.004211205543290799
5.114,0.004953763229430406
5.1160000000000005,-0.014432575687979475
5.118,-0.0245752096922348
5.12,-0.03152168387242693
5.122,-0.050876758458076266
5.124,0.026720706536750276
5.126,-0.008453070921449372
5.128,-0.017004608768991018
5.13,-0.028231061773867465
5.132,-0.020089692917765595
5.134,-0.007693532743541374
5.136,-0.03646065208787656
5.138,0.00542249229601971
5.14,-0.023186210032754853
5.142,-0.024656010919510026
5.144,0.006152180351306869
5.146,-0.021906511817693586
5.148,-0.030032706960131692
5.15,-0.011233928398543844
5.152,-0.01968602238755034
5.154,-0.015362249370674645
5.156,-0.0038614088218975468
5.158,0.0006333287781130174
5.16,0.01219433985175579
5.162,0.012471148670125196
5.164,-0.04134680358614519
5.166,-0.02821731174191507
5.168,-0.01523974725553326
5.17,-0.047148953062244044
5.172,-0.07789163772782937
5.174,-0.014910088785790641
5.176,-0.04018082449950887
5.178,-0.03850698092717331
5.18,-0.0450802473966151
5.182,-0.019624937424786326
5.184,-0.04468091038957224
5.186,-0.06268104292637255
5.188,0.017799090460246376
5.19,-0.04959313090389984
5.192,-0.02339912642481361
5.194,-0.004486308303713257
5.196,-0.00155220699958852
5.198,-0.02483262350801975
5.2,-0.017260958505282004
5.202,0.0056120452784650735
5.204,-0.05807312411559806
5.206,-0.020845991397612073
5.208,-0.05611279658364711
5.21,-0.040923246952884906
5.212,-0.007765327906528358
5.214,-0.012259543269615206
5.216,-0.042669761275164295
5.218,-0.0389997954805545
5.22,-0.056486005583027805
5.222,-0.011971191469242737
5.224,-0.035319116947657964
5.226,-0.0472872698793317
5.228,-0.013934559069814102
5.23,-0.04435587163305645
5.232,0.003758539916255861
5.234,-0.02757945322688813
5.236,-0.0018781932991437517
5.238,-0.028219717504247187
5.24,-0.030296051582997714
5.242,-0.04669919406047446
5.244,-0.07624333826103806
5.246,-0.030979648577778383
5.248,-0.040816989686079136
5.25,-0.039857693067231206
5.252,-0.07573971255911566
5.2540000000000004,-0.02928654410605154
5.256,-0.0744598547778613
5.258,-0.055973405226434306
5.26,-0.004598787459633873
5.2620000000000005,0.008266590701642124
5.264,-0.05828536179062196
5.266,-0.038088834889782194
5.268,-0.0001939411721534473
5.2700000000000005,-0.05905847727726354
5.272,0.0027456193239021112
5.274,-0.07227447570260989
5.276,-0.022818649279123054
5.2780000000000005,-0.027153325757467848
5.28,-0.05184363702349495
5.282,-0.046413542511045056
5.284,-0.03253416672833151
5.2860000000000005,-0.03142164499034527
5.288,-0.04305219339598007
5.29,0.0011880858970509667
5.292,-0.04466230420143558
5.2940000000000005,-0.04917532517468089
5.296,-0.01934338307893152
5.298,-0.03129728848027491
5.3,-0.06268518836481293
5.3020000000000005,-0.016130137620031914
5.304,-0.0267298838423579
5.306,-0.06298483465133661
5.308,-0.036051607018679696
5.3100000000000005,-0.03289743004736844
5.312,-0.051790475191529226
5.314,-0.061169986835060086
5.316,-0.018731327964853592
5.3180000000000005,-0.044942289747650986
5.32,-0.03177166089398063
5.322,-0.04227005199289113
5.324,-0.06193590705859967
5.3260000000000005,-0.055101597490086016
5.328,-0.02776440479593919
5.33,-0.036044540100978587
5.332,-0.05822651498032814
5.3340000000000005,-0.06243645362956981
5.336,-0.0305657725571052
5.338,-0.03044288322675449
5.34,-0.015928586761803722
5.3420000000000005,-0.0464665746405259
5.344,-0.010964103616057682
5.346,-0.04385770557594347
5.348,-0.04923306168971826
5.3500000000000005,-0.02459349341673923
5.352,-0.07589310367589229
5.354,-0.026574952635811906
5.356,-0.020914096552636412
5.3580000000000005,-0.058484496918888004
5.36,-0.07756272123908241
5.362,-0.03528614588811724
5.364,-0.06051969339350137
5.3660000000000005,-0.03218771902632293
5.368,-0.024868517754266267
5.37,-0.01320666285456173
5.372,-0.05779149436838083
5.3740000000000006,-0.03143759716044374
5.376,-0.08712218144348258
5.378,-0.0196563841590727
5.38,-0.03616207179285135
5.382,-0.00678998761832899
5.384,-0.0578622311403173
5.386,-0.031900803841263904
5.388,-0.049322072198687214
5.39,-0.02449426174768211
5.392,-0.048282177232804584
5.394,-0.01645126224142022
5.396,-0.018973887251790885
5.398,-0.04976744182928003
5.4,-0.039711584868034513
5.402,-0.03435116978007795
5.404,0.006692266672243544
5.406,-0.0044028389230048315
5.408,0.05264188931941098
5.41,0.0657137224470011
5.412,0.0640514213572373
5.414,0.17041045652820308
5.416,0.2078731164917021
5.418,0.2566544392008981
5.42,0.35473997421737924
5.422,0.5062878013438107
5.424,0.5739586804211843
5.426,0.6684799562968121
5.428,0.812039334345459
5.43,0.9416331130513952
5.432,1.0807143322703425
5.434,1.1585188969840046
5.436,1.270194750073879
5.438,1.406671234652284
5.44,1.4128120871952636
5.442,1.438251582916539
5.444,1.4314666121770516
5.446,1.4062436145585586
5.448,1.3367311027381004
5.45,1.2604101875547369
5.452,1.185995625752508
5.454,1.0272319062520514
5.456,0.9013167537698246
5.458,0.8369642909843051
5.46,0.6959242873514513
5.462,0.5373944404982537
5.464,0.4492002733282004
5.466,0.34885579395370064
5.468,0.2534685279909071
5.47,0.19466893966645415
5.472,0.12696539037048027
5.474,0.07262638645019384
5.476,0.05449037696061169
5.478,0.03608104706693513
5.48,-0.0014055363278953
5.482,-0.0055478711567173225
5.484,-0.007708560813667671
5.486,-0.04597396961380571
5.488,-0.06154693441440537
5.49,-0.025092939387751492
5.492,-0.053850955625283047
5.494,-0.0649808053509853
5.496,-0.0659984519195316
5.498,-0.05140849384141837
5.5,-0.011324885475589469
5.502,-0.022100796601120767
5.5040000000000004,-0.06505603812289373
5.506,-0.048499924356731644
5.508,-0.07537467930652841
5.51,-0.04380992651069373
5.5120000000000005,-0.055640255210420625
5.514,-0.08081701453369472
5.516,-0.09165139505190749
5.518,-0.03232627734827871
5.5200000000000005,-0.05301994856109615
5.522,-0.04035502394727509
5.524,-0.0400843045898665
5.526,-0.08204418045676978
5.5280000000000005,-0.021602254433420728
5.53,-0.05873814439517798
5.532,-0.03382928599176111
5.534,-0.06457672899277092
5.5360000000000005,-0.050428946618048906
5.538,0.006174547392694892
5.54,-0.04654870954278429
5.542,-0.05381121788009111
5.5440000000000005,-0.08218435532612967
5.546,-0.06994786993575183
5.548,-0.05140572829221022
5.55,-0.02899820093722475
5.5520000000000005,-0.05773704284149364
5.554,-0.06900377024694605
5.556,-0.07906334288397976
5.558,-0.03817051875519921
5.5600000000000005,0.021349409466127567
5.562,-0.04767564525394128
5.564,-0.04695506827886039
5.566,-0.03623788220787576
5.5680000000000005,-0.037775879649146735
5.57,-0.042704593554030106
5.572,-0.059497469087009903
5.574,-0.032173156922129326
5.5760000000000005,-0.0341972661677296
5.578,-0.02459178819822759
5.58,-0.025944397165258985
5.582,-0.05957828891580928
5.5840000000000005,-0.023866242912394635
5.586,-0.037145500287379105
5.588,-0.039084456499238945
5.59,-0.033445799840310333
5.5920000000000005,-0.03807726169900761
5.594,-0.03481198759044959
5.596,-0.029939028526212535
5.598,-0.039000508336536836
5.6000000000000005,-0.05209369232330183
5.602,-0.0533057349656871
5.604,-0.02555842264153145
5.606,-0.04947136868215136
5.6080000000000005,-0.017818634348578413
5.61,-0.04523302185975827
5.612,-0.05971975916308861
5.614,-0.06038470063736468
5.6160000000000005,-0.059501113045179334
5.618,-0.03888055970139201
5.62,-0.04023281727343664
5.622,-0.07421806567014634
5.6240000000000006,-0.045214926226867805
5.626,-0.03261265252565959
5.628,-0.10595400867732538
5.63,-0.026237517902863015
5.632,-0.057384781492560474
5.634,-0.044114779126007815
5.636,-0.02917528767330928
5.638,-0.05720798444849816
5.64,-0.07317666789286242
5.642,-0.05902830512500476
5.644,-0.05766060554215497
5.646,-0.03885942599635581
5.648,-0.0614786055500986
5.65,-0.014793187129857829
5.652,-0.04415796589781791
5.654,-0.03365488637864498
5.656,-0.040883377405225824
5.658,-0.06401979941558021
5.66,-0.06432813997867637
5.662,-0.04286228612604137
5.664,-0.07864504258455549
5.666,-0.019019355633837533
5.668,-0.06030673753278214
5.67,-0.04553728823772708
5.672,-0.059540376083178005
5.674,-0.028022872516552985
5.676,-0.06562372715758798
5.678,-0.06613162342453477
5.68,-0.04173266602630255
5.682,-0.02493646487147704
5.684,-0.07171876559430046
5.686,-0.03197869286193223
5.688,-0.05901639036887357
5.69,-0.04489205340145649
5.692,-0.03895985207907258
5.694,-0.08266128274682905
5.696,-0.04084830471827839
5.698,-0.03742322227097401
5.7,-0.0068147288498624226
5.702,-0.05638027610908149
5.704,-0.04685679943815495
5.706,-0.016842795267414938
5.708,-0.06143696596580764
5.71,-0.021730701199718983
5.712,-0.05641859745324097
5.714,-0.028402549318792512
5.716,-0.032055963068037804
5.718,-0.019768467340132236
5.72,-0.044511291071836726
5.722,-0.0333565216520797
5.724,-0.043249127662029166
5.726,-0.036432188732659083
5.728,-0.03380373655283507
5.73,-0.028118498281429913
5.732,-0.03161210406557097
5.734,-0.03882213012705386
5.736,-0.052592117196721355
5.738,-0.03653961503146043
5.74,-0.03442443947124533
5.742,-0.03640623588428156
5.744,-0.043211563585444854
5.746,-0.06134710730549005
5.748,-0.019475295448511825
5.75,0.009424413582140821
5.752,-0.041528291136938456
5.7540000000000004,-0.0578864488492087
5.756,-0.001544880303345382
5.758,-0.06394134377087285
5.76,-0.029658983993647067
5.7620000000000005,-0.030094609155745626
5.764,-0.056591445584170355
5.766,-0.047495052517315846
5.768,-0.05111171553511587
5.7700000000000005,-0.00817600045340746
5.772,-0.04089262602350123
5.774,-0.03595783516281452
5.776,-0.023740463167914238
5.7780000000000005,-0.021923443363997153
5.78,-0.029963159067472083
5.782,-0.04050773745395416
5.784,-0.06652344633247144
5.7860000000000005,-0.030381744805043107
5.788,-0.04145573365148924
5.79,-0.06025928064881324
5.792,-0.047143334413320775
5.7940000000000005,-0.04970708280468919
5.796,-0.015540468549365881
5.798,-0.043947232918814076
5.8,-0.04413262144111617
5.8020000000000005,-0.027290140348993578
5.804,-0.037136543441003964
5.806,-0.033545091187499806
5.808,-0.02583315758321986
5.8100000000000005,-0.024148766843922274
5.812,-0.009515990176681567
5.814,-0.04207285599802545
5.816,-0.038219916196218305
5.8180000000000005,-0.014433376216808024
5.82,0.004892888862266381
5.822,-0.04066191587654305
5.824,-0.013846844523491447
5.8260000000000005,-0.02440363633960995
5.828,-0.010264391153914648
5.83,-0.04870827492500662
5.832,-0.030804380219475486
5.8340000000000005,-0.03532271075271697
5.836,-0.04344561767611839
5.838,-0.020713819782921437
5.84,0.03351236724859287
5.8420000000000005,-0.02892363421671492
5.844,-0.022410445918164757
5.846,-0.023337033419036087
5.848,-0.0059958708194496994
5.8500000000000005,-0.028677301098314713
5.852,-0.007584575617034885
5.854,-0.011374175540586732
5.856,-0.0094486017225059
5.8580000000000005,-0.0014188592791844618
5.86,-0.0099035712194363
5.862,0.010679320534192474
5.864,-0.0163640307571143
5.8660000000000005,-0.016273025981878363
5.868,-0.02828978136184411
5.87,-0.007738016459057605
5.872,0.007237614482856321
5.8740000000000006,0.001223463592857063
5.876,-0.03227465664991956
5.878,0.014053997506215287
5.88,0.010284377715249628
5.882000000000001,0.0012825179547864447
5.884,0.017269782955406675
5.886,-0.028186813763571926
5.888,-0.042151706819480786
5.89,0.003160802590285852
5.892,0.0047498075256666855
5.894,-0.04006188441993218
5.896,-0.014334763551048341
5.898,0.03292359239877783
5.9,-0.018671909374756063
5.902,-0.030607082831143696
5.904,-0.025493391322168085
5.906,-0.052760644009908694
5.908,-0.011610589533994107
5.91,-0.024903424147350393
5.912,-0.010938047855376528
5.914,-0.04830758945121467
5.916,0.007599217134299509
5.918,-0.014580975498432208
5.92,0.024498241027132987
5.922,0.03137328285958607
5.924,0.0017109776680392808
5.926,-0.003569708909316377
5.928,0.009507620841463992
5.93,-0.03755201860676066
5.932,0.019931877364017893
5.934,-0.03043271738462125
5.936,-0.000582894160907562
5.938,-0.005626149409687041
5.94,-0.026789205826204657
5.942,-0.01396498031298599
5.944,-0.00035985288622248854
5.946,-0.003237324007425403
5.948,-0.012851465554373772
5.95,0.02135890512407633
5.952,-0.027279945834393714
5.954,-0.003651384097814553
5.956,-0.010865458643675063
5.958,-0.025511603024868896
5.96,-0.05406813066325012
5.962,-0.010389379607835442
5.964,0.008049270083734008
5.966,0.02905199349507115
5.968,0.016539593703525757
5.97,0.024313863965166972
5.972,-0.032566906504593464
5.974,0.011243090710794067
5.976,-0.02017105163057727
5.978,0.007215337470396607
5.98,0.012617474382235701
5.982,-0.01820641312536419
5.984,0.02039583024311583
5.986,0.027586029828442563
5.988,0.03525848999781303
5.99,-0.03371120732986164
5.992,-0.025994713783363526
5.994,0.0021696920574266958
5.996,0.0254369885430541
5.998,0.04644332058036478
6.0,-0.012189725274080316
6.002,0.01099073985150857
6.0040000000000004,0.0356768425364722
6.006,0.029275091496572363
6.008,0.03225796435505211
6.01,0.008202482424761494
6.0120000000000005,0.02568770546994327
6.014,0.040771715700226696
6.016,0.01213992998572949
6.018,0.032570539680744366
6.0200000000000005,0.010340839675578622
6.022,-0.013962635902905092
6.024,0.016074809062706287
6.026,-0.0199129390474731
6.0280000000000005,-0.02970828816161645
6.03,0.01026193655421279
6.032,-0.02626434366914167
6.034,0.04447948083938193
6.0360000000000005,0.06705357511326629
6.038,-0.019294075240721006
6.04,0.02830811395673039
6.042,0.009113305043209483
6.0440000000000005,0.019157920662649087
6.046,-0.0006350910471748924
6.048,0.00024345188816867099
6.05,0.014210929932498402
6.0520000000000005,0.007787077934590492
6.054,0.0169004126923218
6.056,-0.004262516588015091
6.058,0.04233380362673504
6.0600000000000005,0.010329059757787602
6.062,0.04454599958397806
6.064,0.049002460104750525
6.066,0.025056189797114187
6.0680000000000005,-0.009457486843806994
6.07,-0.01348385595235332
6.072,0.0006925698252192927
6.074,0.001699844188089288
6.0760000000000005,0.010092099977657372
6.078,0.017948287773664383
6.08,0.004640095241696227
6.082,-0.033788009999497874
6.0840000000000005,0.0002596776011163232
6.086,-0.019932429866515965
6.088,-0.019515840778159696
6.09,0.005245617397898045
6.0920000000000005,0.032882721718681035
6.094,0.01107806620192765
6.096,0.019376396878436432
6.098,0.011232909137951965
6.1000000000000005,-0.016953634354961673
6.102,0.029199761840498537
6.104,0.01565845977568807
6.106,0.015128520376038138
6.1080000000000005,-0.013931744766800716
6.11,-0.0030989697730110927
6.112,0.029277952670791356
6.114,0.05310054881491806
6.1160000000000005,-0.002696394630630816
6.118,-0.006309232936423121
6.12,0.03199031529924372
6.122,0.016833125668777597
6.1240000000000006,0.003653747028303409
6.126,0.003003476667559176
6.128,-0.006713777275631359
6.13,0.0257221108921832
6.132000000000001,-0.004111776368414585
6.134,-0.008078748469146732
6.136,0.0017021906110358496
6.138,0.04765037721986095
6.140000000000001,0.02046228285935986
6.142,0.055964804135273535
6.144,0.042881459601781
6.146,0.04398916306666238
6.148,0.036662837704286536
6.15,0.016377871764552843
6.152,-0.009908803461882481
6.154,-0.004325853070305946
6.156,0.05738258692896202
6.158,0.01272555773190275
6.16,0.051315564074224065
6.162,0.030205279706774987
6.164,0.023597736481118962
6.166,0.013053359811550737
6.168,0.03231147612520952
6.17,0.04303133343214212
6.172,0.04123367906981124
6.174,0.04380186386655326
6.176,0.03172515392451972
6.178,0.00863236081956607
6.18,0.013515384231372598
6.182,-0.005835684829474102
6.184,0.0225996092054477
6.186,0.006079357532092587
6.188,0.03484480708990824
6.19,0.026441665824507996
6.192,0.03285056291394506
6.194,0.03193936647743351
6.196,0.006936109843279412
6.198,0.02833032914619094
6.2,0.04005588455968521
6.202,0.032916815049408375
6.204,0.01975732796120207
6.206,0.018086195362450787
6.208,0.0469499632071813
6.21,0.06476739880796675
6.212,0.001245475290638481
6.214,0.07152778275286292
6.216,0.0249314337492332
6.218,0.033113003237134515
6.22,0.027416220941745315
6.222,0.03775147502862091
6.224,0.04525759063506267
6.226,-0.0020725635527142345
6.228,0.0479054025533467
6.23,0.05023428528779375
6.232,0.05937419246981374
6.234,0.029620410743186987
6.236,0.024279063400820068
6.238,0.07380383765724124
6.24,0.04309970124261372
6.242,0.0007370583212137547
6.244,0.060916326944264305
6.246,0.04185661922887636
6.248,0.03529935853141736
6.25,0.06444359300099842
6.252,0.02487703009592568
6.2540000000000004,0.07233187585819402
6.256,0.045079580256901924
6.258,0.0654370774095498
6.26,0.04137264873748275
6.2620000000000005,0.03425946406081335
6.264,0.08723872724484986
6.266,0.13729633434403749
6.268,0.1393557147157283
6.2700000000000005,0.21714282165311988
6.272,0.25823047945410565
6.274,0.2967277222802026
6.276,0.32719773145206965
6.2780000000000005,0.49558422759340437
6.28,0.6020802791624249
6.282,0.7197849981025174
6.284,0.828414308249146
6.2860000000000005,0.9624683421260797
6.288,1.0794014824001172
6.29,1.2167408981607657
6.292,1.3113056608835725
6.2940000000000005,1.421836296254177
6.296,1.471705371309663
6.298,1.5497612727928871
6.3,1.5460749533039455
6.3020000000000005,1.5053589838457462
6.304,1.4556117860671989
6.306,1.4082400698817459
6.308,1.310461034956742
6.3100000000000005,1.21804686051162
6.312,1.0758550028343574
6.314,0.9425657310453723
6.316,0.8326823525983733
6.3180000000000005,0.7218148759239946
6.32,0.6340478462868612
6.322,0.5190821916592936
6.324,0.4133179681360222
6.3260000000000005,0.3032297881372801
6.328,0.232390365730455
6.33,0.1928788021767986
6.332,0.15927053004243755
6.3340000000000005,0.11026577053568898
6.336,0.07994444381013532
6.338,0.1078742778911024
6.34,0.06325639415684262
6.3420000000000005,0.04748924548191148
6.344,0.08037523492663863
6.346,0.025986057431880295
6.348,0.03576707125514385
6.3500000000000005,0.07539966190665302
6.352,0.06533927524624802
6.354,0.09143356417075173
6.356,0.06547678893153487
6.3580000000000005,0.046508281582652945
6.36,0.031104746871901446
6.362,0.06541505643423813
6.364,0.029141407767016073
6.3660000000000005,0.08141269649536578
6.368,0.043330878491299525
6.37,0.07791610842994355
6.372,0.031010706840495162
6.3740000000000006,0.049777977733661265
6.376,0.09042364153282517
6.378,0.07770668316834063
6.38,0.018008860276148588
6.382000000000001,0.06550842589256375
6.384,0.05230806975649038
6.386,0.0526877793490336
6.388,0.05834541624135249
6.390000000000001,0.04317068828015908
6.392,0.04531200796431042
6.394,0.017467531270076737
6.396,0.06888215856483634
6.398000000000001,0.030647985090969342
6.4,0.03136367495753183
6.402,0.05375922739028985
6.404,0.03557265137899408
6.406,0.06040196436033044
6.408,0.029690132545047574
6.41,0.06193068631459954
6.412,0.07270393704393838
6.414,0.059162351972271245
6.416,0.0713275142887552
6.418,0.04922925608534322
6.42,0.051890816281674954
6.422,0.03965760797162351
6.424,0.07140282445607923
6.426,0.05831761081377465
6.428,0.07673270974384462
6.43,0.04891982569910991
6.432,0.0831245327288071
6.434,0.06271800977808645
6.436,0.025462367440341326
6.438,0.0355467368338162
6.44,0.08025380981804403
6.442,0.0888155031491874
6.444,0.06545963534616563
6.446,0.057550126697114706
6.448,0.07040749849864511
6.45,0.023054639098087876
6.452,-0.0021948209669189755
6.454,0.050897557731635235
6.456,0.06408900363223992
6.458,0.025644532478051717
6.46,0.037345115534482345
6.462,0.04343623935858416
6.464,0.03622396237717966
6.466,0.043540866629222824
6.468,0.05802988120262081
6.47,0.061947186862134074
6.472,0.02860005739976123
6.474,0.07821553745443324
6.476,0.029899963390647193
6.478,0.05539252256185528
6.48,0.04946413560757344
6.482,0.00813452288781228
6.484,0.05046541726945027
6.486,0.059838225190375585
6.488,0.05412521771322339
6.49,0.06438466039787284
6.492,0.03494755369449616
6.494,0.052026012641074273
6.496,0.04233988662336369
6.498,0.03032236289758057
6.5,0.03987877405268668
6.502,0.04154770511493769
6.5040000000000004,0.034132905653409734
6.506,0.04537238050662008
6.508,0.0711866809052275
6.51,0.0434539479733694
6.5120000000000005,0.02386137647261904
6.514,0.07935799180900888
6.516,0.06343112386946706
6.518,0.048788887693494834
6.5200000000000005,0.043791129476452875
6.522,0.032379786651695844
6.524,0.061116897661675926
6.526,0.0652637668878373
6.5280000000000005,0.05163963851880706
6.53,0.013748197051718876
6.532,0.05435544188706692
6.534,0.062094691231879856
6.5360000000000005,0.03593703103105653
6.538,0.028653507241149182
6.54,0.05047139019574044
6.542,0.06282360128520198
6.5440000000000005,0.04669776812279079
6.546,0.02996290708084223
6.548,0.04265678614877087
6.55,0.06829662817713503
6.5520000000000005,0.08945937686293336
6.554,0.05305000042611822
6.556,0.03738538537594031
6.558,0.06129923791900503
6.5600000000000005,0.06770148049250652
6.562,0.033886718770607824
6.564,0.02043868503313579
6.566,0.04943158410275077
6.5680000000000005,0.05615821229727263
6.57,0.023214899781068745
6.572,0.07957021191612898
6.574,0.026916681885977144
6.5760000000000005,0.05066289804916129
6.578,0.07019916131924972
6.58,0.08195494136830987
6.582,0.03483671541500992
6.5840000000000005,0.0787912952992439
6.586,0.05006299578512956
6.588,0.016354487211747787
6.59,0.014816940144264136
6.5920000000000005,0.048538673814197505
6.594,0.04029398438699339
6.596,0.07910466754522072
6.598,0.02502999250882612
6.6000000000000005,0.04169953803022058
6.602,0.05936276626914747
6.604,0.043672457793372546
6.606,0.027194213805896473
6.6080000000000005,0.08405488966207522
6.61,0.02038738200978096
6.612,0.05878916129240602
6.614,0.03781630354093836
6.6160000000000005,0.07559607551922704
6.618,0.04052747872512094
6.62,0.06813946277314098
6.622,0.037180181433723626
6.6240000000000006,0.08919661461077755
6.626,0.02020202831971184
6.628,0.018277074633522412
6.63,0.04317319988687161
6.632000000000001,0.03467123480911376
6.634,0.044276405755435864
6.636,0.058285506292390966
6.638,0.06325601440809449
6.640000000000001,0.033545180051348114
6.642,0.0497616951578354
6.644,0.039302531230614605
6.646,0.05703345429449109
6.648000000000001,0.05993687550920332
6.65,0.0496807698357561
6.652,0.06973108964015674
6.654,0.06934125927694348
6.656000000000001,0.015461278997323802
6.658,0.052787522687833946
6.66,0.047472644429137505
6.662,0.04430742511072986
6.664,0.05411939195839037
6.666,0.009773431486937378
6.668,0.033933040194571884
6.67,0.04950903663244342
6.672,0.04992879155099689
6.674,0.015571296372140053
6.676,0.06431207674344756
6.678,0.027885416555123527
6.68,0.05706282818506192
6.682,0.03819659957820831
6.684,0.05252548514019559
6.686,0.046844990630875716
6.688,0.039053596276577396
6.69,0.04789706743576053
6.692,0.03585162944424454
6.694,0.06561697792255827
6.696,0.011111325099642529
6.698,0.003062538945342426
6.7,0.050071998052436555
6.702,0.02714043033075557
6.704,0.022349409343471377
6.706,0.04141182486254571
6.708,0.07338578298931495
6.71,0.09950107427373292
6.712,0.07801415626714281
6.714,0.0069413412324343185
6.716,0.021826420934329883
6.718,0.003245844431236225
6.72,0.03739520378673132
6.722,0.02157975597438556
6.724,0.03835727011762921
6.726,0.033724764087543026
6.728,0.04623181340131731
6.73,0.042820304584042075
6.732,0.01674101890465181
6.734,0.04033654110454664
6.736,0.01608655965430794
6.738,0.04131532917116461
6.74,0.031793587621905046
6.742,0.04331941877250953
6.744,0.011835034179795992
6.746,0.030141477473630805
6.748,0.052888259176494305
6.75,0.05768228934147311
6.752,0.05552786939854417
6.7540000000000004,0.007247056043955553
6.756,0.02405528869949073
6.758,-0.0043120135983327895
6.76,0.05920168955081832
6.7620000000000005,0.04158251637406956
6.764,0.04281473127564094
6.766,0.04303498934660644
6.768,0.03794696033405485
6.7700000000000005,0.015429712881838701
6.772,0.01659372035162715
6.774,0.02713932280833805
6.776,0.0250661438552822
6.7780000000000005,0.026723327751283964
6.78,0.04992194179086941
6.782,0.03675837403943858
6.784,0.02597025951312122
6.7860000000000005,0.046918659117275274
6.788,0.043974833712545014
6.79,0.04349194289767135
6.792,0.05145447864916472
6.7940000000000005,0.014839617416712445
6.796,0.021108125645537528
6.798,0.007342427626043618
6.8,0.030787455853302313
6.8020000000000005,0.030245042050742667
6.804,0.05435209746592632
6.806,0.05197875176146951
6.808,0.03444379339038385
6.8100000000000005,0.011633670313788778
6.812,0.024798385866143594
6.814,0.03698597872411112
6.816,0.01875640787958419
6.8180000000000005,0.05220299466276458
6.82,0.039152981658124156
6.822,0.0568039970520212
6.824,0.017768348267381703
6.8260000000000005,0.06198553965559901
6.828,0.05493220414462649
6.83,0.0060427293447737306
6.832,-0.002951997079470487
6.8340000000000005,0.06342603531108323
6.836,0.013917614975398236
6.838,0.06842336153169652
6.84,0.029766792181757963
6.8420000000000005,0.03471675565405634
6.844,0.06596467699573447
6.846,0.035926164561289706
6.848,0.023472918435057017
6.8500000000000005,0.01834182850476733
6.852,0.024822019778890345
6.854,0.009151851351572175
6.856,0.004355181899896195
6.8580000000000005,0.04847714583514129
6.86,0.020665315781077994
6.862,0.010202466291002429
6.864,0.0006240597203297678
6.8660000000000005,0.00816535063482354
6.868,0.039231358461461696
6.87,0.02971872122713555
6.872,0.026025006537070006
6.8740000000000006,0.030053402611313947
6.876,0.0017562677146594347
6.878,0.023043678362909183
6.88,0.015744558278252753
6.882000000000001,-0.002338635754589695
6.884,0.014503369772178846
6.886,0.030782406377225655
6.888,0.024186562699439057
6.890000000000001,0.04607302539674468
6.892,0.028948303829171976
6.894,0.005565432935744862
6.896,0.05844049873463994
6.898000000000001,0.009039740001473399
6.9,0.024219027305238557
6.902,-0.002927455252713561
6.904,0.01977830321300972
6.906000000000001,0.022263296045903817
6.908,0.0027568323527783663
6.91,0.007949261881542147
6.912,0.01685952774645803
6.914,0.03079831064937737
6.916,0.03199569118583975
6.918,0.04547377128424601
6.92,0.022212346939722006
6.922,0.008393931746015972
6.924,0.007966073921946794
6.926,0.01778503751162623
6.928,0.017232204364127396
6.93,0.010843510601124129
6.932,0.023539768168689044
6.934,0.0371549349204647
6.936,0.051794950889055516
6.938,0.04133157053497764
6.94,0.05108398697164329
6.942,0.05130926453988349
6.944,-0.025299632038404643
6.946,0.034677577026916456
6.948,0.023262751955259273
6.95,0.014368129834048837
6.952,0.003962598010900743
6.954,0.008906462993399894
6.956,0.047120955263245286
6.958,0.024300626703255453
6.96,-0.0009791410453212444
6.962,0.052555758680591834
6.964,-0.006816195766912016
6.966,-0.03170159216858185
6.968,-0.012108172989625125
6.97,-0.022505766028031234
6.972,-0.001884749047137168
6.974,0.012024392241138163
6.976,-0.020803870533320633
6.978,0.004934498773417878
6.98,-0.015408705373345426
6.982,-0.0008241015114620965
6.984,0.013660396951395473
6.986,0.014390709736651089
6.988,-0.0006346609996154152
6.99,-0.0005420173912527102
6.992,-0.03844517203057281
6.994,0.01671347881185908
6.996,0.010996238702935512
6.998,-0.010997364309243113
7.0,0.020104718412239396
7.002,0.029129654942951992
7.0040000000000004,-0.0029536404408898064
7.006,0.005594950062737243
7.008,-0.03499948525087806
7.01,-0.0035586443958246757
7.0120000000000005,0.0042056364823033964
7.014,0.007716749091032862
7.016,0.0035588932965913735
7.018,-0.021676592412995806
7.0200000000000005,-0.0020554168347933135
7.022,-0.02148894153533975
7.024,-0.011509873475183577
7.026,-0.01348440397070808
7.0280000000000005,-0.003586464744612192
7.03,-0.038379007078358764
7.032,-0.02665488298759452
7.034,-0.006280991119383165
7.0360000000000005,0.02349008936147373
7.038,-0.03393838785947889
7.04,0.005479862150014238
7.042,-0.03749134721547208
7.0440000000000005,0.012056610860601827
7.046,0.004578163381014628
7.048,-0.021960439840856112
7.05,-0.006522357969549479
7.0520000000000005,-0.013218766576614216
7.054,-0.012113641622303226
7.056,-0.0009053234013751203
7.058,0.008714484776459266
7.0600000000000005,-0.023340196322615598
7.062,-0.014436033230727568
7.064,-0.02562303391645802
7.066,0.020901608446236213
7.0680000000000005,0.009158025860472504
7.07,-0.00488442981031578
7.072,-0.03221797421584025
7.074,0.010409806482229772
7.0760000000000005,-0.04114503632999207
7.078,0.014062682752046694
7.08,-0.022264328255999066
7.082,-0.04778548922316776
7.0840000000000005,-0.00044233666302173716
7.086,-0.03147927181028811
7.088,0.004077902835888305
7.09,0.01504821975517524
7.0920000000000005,-0.03911055666546051
7.094,-0.006924356208087096
7.096,-0.025711727502493377
7.098,0.011206202127677044
7.1000000000000005,0.004421079811758694
7.102,0.012565649910881452
7.104,-0.02185626558817201
7.106,-0.0009867817943823554
7.1080000000000005,0.00724862461496288
7.11,-0.02251843729822195
7.112,0.015939408698203997
7.114,-0.0115643111386326
7.1160000000000005,-0.012334396380080659
7.118,0.019203590995197133
7.12,-0.020198674002239632
7.122,0.05250635636216573
7.1240000000000006,0.09130848865046734
7.126,0.15352370795094125
7.128,0.1749188369801241
7.13,0.20436638288974518
7.132000000000001,0.31357543944455113
7.134,0.3527789099638716
7.136,0.49076238650703463
7.138,0.5570985278400573
7.140000000000001,0.7228444220084005
7.142,0.8371741257187517
7.144,0.9487850137760993
7.146,1.0706695995858084
7.148000000000001,1.1976957446042287
7.15,1.3308904254190288
7.152,1.4086388605334026
7.154,1.4515950109709685
7.156000000000001,1.4501652647859524
7.158,1.4473014917564089
7.16,1.4402718149458398
7.162,1.4216441992532776
7.164000000000001,1.3578048612900648
7.166,1.2145461007812572
7.168,1.0946197502271295
7.17,0.9478502968069906
7.172,0.821760906168554
7.174,0.7329551717054824
7.176,0.579256666230964
7.178,0.4833111561684774
7.18,0.3660912704383338
7.182,0.36812200948369656
7.184,0.23122713172931023
7.186,0.18950721637800536
7.188,0.09441107204167531
7.19,0.025004115025847207
7.192,0.03847846581685987
7.194,0.01439399996530176
7.196,-0.009182512761055861
7.198,-0.03595645685298292
7.2,0.011731819646087275
7.202,-0.002824406405520981
7.204,-0.017423464836270927
7.206,-0.04101720628914475
7.208,-0.0576710509881306
7.21,-0.031575519664309395
7.212,-0.05684059707796631
7.214,-0.030389453426737746
7.216,-0.03295993767799044
7.218,-0.01570551362150771
7.22,-0.006709260213654353
7.222,-0.040982768753795355
7.224,-0.031148374340296388
7.226,-0.026070885916997747
7.228,-0.04926074238146014
7.23,-0.05345746387213843
7.232,-0.013931959608303563
7.234,-0.04951284621473853
7.236,-0.02051384600418949
7.238,-0.01319875179943969
7.24,-0.03399913821131877
7.242,-0.011539092944060072
7.244,-0.04413097603242295
7.246,-0.030533095216223945
7.248,-0.07272956867872683
7.25,-0.04217607064631418
7.252,-0.020459469489539788
7.2540000000000004,-0.044488531768513105
7.256,-0.045052152773962226
7.258,-0.044772023539623444
7.26,-0.010772255150579087
7.2620000000000005,-0.04912471237715311
7.264,-0.006024553134796891
7.266,-0.061382874221525545
7.268,-0.033484006687835875
7.2700000000000005,-0.01887257285424556
7.272,-0.03916633274980452
7.274,-0.0564285364949851
7.276,-0.06858101569181087
7.2780000000000005,-0.03664805138787841
7.28,-0.03378563004479156
7.282,-0.07325799845975227
7.284,-0.055347618200473306
7.2860000000000005,-0.034021553434199804
7.288,-0.02331527571745778
7.29,-0.049186218713650025
7.292,-0.006522193187193326
7.2940000000000005,-0.03709514166998421
7.296,-0.060649443762797614
7.298,-0.04661576132323789
7.3,-0.06834373479443302
7.3020000000000005,-0.05830438497875248
7.304,-0.10101436343103698
7.306,-0.04585903594811665
7.308,-0.07217983092615196
7.3100000000000005,-0.03687793542726943
7.312,-0.07838272871482004
7.314,-0.03722385273785783
7.316,-0.023561609103745534
7.3180000000000005,-0.05744593926722355
7.32,-0.030045213353640743
7.322,-0.04210494808509666
7.324,-0.020275119522889518
7.3260000000000005,-0.045390757354679415
7.328,-0.06919266450814396
7.33,-0.03972347934814703
7.332,-0.04704445093160851
7.3340000000000005,-0.06268543263979437
7.336,-0.05427826895375554
7.338,-0.0846202157111881
7.34,-0.034483486330476446
7.3420000000000005,-0.069452865370778
7.344,-0.020141931487730007
7.346,-0.055588222466372156
7.348,-0.04815011428837151
7.3500000000000005,-0.04095716834393863
7.352,-0.016350076383679857
7.354,-0.01911759152694664
7.356,-0.0588729344335815
7.3580000000000005,-0.054127421788523714
7.36,-0.06524404890201428
7.362,-0.04351610617138294
7.364,-0.04007424591915161
7.3660000000000005,-0.052339343866730156
7.368,-0.038710000962676926
7.37,-0.034427065019174224
7.372,-0.04889148157461963
7.3740000000000006,-0.0522502411517742
7.376,-0.055533203555592006
7.378,-0.04060681889192009
7.38,-0.04117585792033069
7.382000000000001,-0.048004034472381586
7.384,-0.04086592069513347
7.386,-0.06424239475503338
7.388,-0.050998732733594246
7.390000000000001,-0.049198069537429376
7.392,-0.0974835518266079
7.394,-0.03211975564375895
7.396,-0.05613005429766228
7.398000000000001,-0.057378632212424625
7.4,-0.04183371543769234
7.402,-0.03430475632171967
7.404,-0.04942321730187114
7.406000000000001,-0.045803023563716655
7.408,-0.02559161275365375
7.41,-0.03270896607472766
7.412,-0.06937284076601404
7.414000000000001,-0.061544849332992174
7.416,-0.05506896167757191
7.418,-0.020090433155054214
7.42,-0.06347161701870199
7.422000000000001,-0.02943413404382859
7.424,-0.0603449910072891
7.426,-0.0636680419329631
7.428,-0.04881207904507799
7.43,-0.013802157731277485
7.432,-0.07336315377286673
7.434,-0.05334654657824733
7.436,-0.0647491866203157
7.438,-0.05062656772660946
7.44,-0.0734492936753744
7.442,-0.03969322019758363
7.444,-0.07996983238584149
7.446,-0.06298212395910018
7.448,-0.05749110616021238
7.45,-0.029127955153216242
7.452,-0.04992411915989374
7.454,-0.08426049282396925
7.456,-0.0767330899218486
7.458,-0.032783549693889025
7.46,-0.03200593265669837
7.462,-0.054372755267752454
7.464,-0.04377661601816711
7.466,-0.09106865826795094
7.468,-0.05481863000687201
7.47,-0.09278151391265485
7.472,-0.07628198408996825
7.474,-0.07047235134406424
7.476,-0.09455388020756042
7.478,-0.03468457705084718
7.48,-0.061658988456183894
7.482,-0.04931152722972513
7.484,-0.03946852644165786
7.486,-0.05480990149030381
7.488,-0.04945036564119526
7.49,-0.051913522946745345
7.492,-0.06295273786408043
7.494,-0.038144053424976676
7.496,-0.08112085538041933
7.498,-0.043470123279908235
7.5,-0.03851147872824946
7.502,-0.0801525448484218
7.5040000000000004,-0.051811792506994796
7.506,-0.05881766682574755
7.508,-0.06215680470008714
7.51,-0.0638432956517805
7.5120000000000005,-0.05800800588866434
7.514,-0.06354748377198069
7.516,-0.06373105574783534
7.518,-0.027873229071185505
7.5200000000000005,-0.03784155366147004
7.522,-0.06002149925070838
7.524,-0.02044854042568863
7.526,-0.06523498839639218
7.5280000000000005,-0.04257257210679275
7.53,-0.04456929963691681
7.532,-0.05240835053813452
7.534,-0.08536125620535662
7.5360000000000005,-0.026631683420626273
7.538,-0.01678552795007414
7.54,-0.044412283256177805
7.542,-0.03399821042448101
7.5440000000000005,-0.05819500440761851
7.546,-0.026890182058090798
7.548,-0.04372918741139696
7.55,-0.03174866288557411
7.5520000000000005,-0.062292088668786535
7.554,-0.0723170816841614
7.556,-0.05074454583483989
7.558,-0.05501805193772513
7.5600000000000005,-0.07508066660805493
7.562,-0.029687531154805488
7.564,-0.06173872065077662
7.566,-0.0368592870970059
7.5680000000000005,-0.03601143967123721
7.57,-0.04236500333702853
7.572,-0.03543865032406815
7.574,-0.04693292264393518
7.5760000000000005,-0.05360426720812977
7.578,-0.03361683509759654
7.58,-0.058091526154552695
7.582,-0.0746594931722393
7.5840000000000005,-0.038480643949306045
7.586,-0.026371889776635925
7.588,-0.01562298305976697
7.59,-0.01438763324505847
7.5920000000000005,-0.06144625831711039
7.594,-0.07838689178760927
7.596,-0.026408754152990866
7.598,-0.02748526891650621
7.6000000000000005,-0.03277156302338108
7.602,-0.05803629209000259
7.604,-0.03864498360486418
7.606,-0.03720786620112955
7.6080000000000005,-0.06980267946661542
7.61,-0.037069301944325214
7.612,-0.0625864090327373
7.614,-0.06365195507050232
7.6160000000000005,-0.03865527294273148
7.618,-0.043006232217720874
7.62,-0.01366229307223011
7.622,-0.04939349603456262
7.6240000000000006,-0.054131301595017
7.626,-0.05516514025308571
7.628,-0.049934302155852456
7.63,-0.020992857831039845
7.632000000000001,-0.047897656772054424
7.634,-0.03390088191799727
7.636,-0.04698742426724951
7.638,-0.042618497024065456
7.640000000000001,-0.07043973679398123
7.642,-0.03527331221504854
7.644,-0.06374383401897832
7.646,-0.030861223654541484
7.648000000000001,-0.03180439913390204
7.65,-0.06183926236839449
7.652,-0.05673287110227669
7.654,-0.06026311214867326
7.656000000000001,-0.04531161332368559
7.658,-0.039333041884241166
7.66,-0.04222428623795511
7.662,-0.032262668469193234
7.664000000000001,-0.06602586717209064
7.666,-0.03556724234373673
7.668,-0.027068946074417677
7.67,-0.02984949787545938
7.672000000000001,-0.050202902245739325
7.674,-0.07470050456594421
7.676,-0.025056727267770453
7.678,0.0070489331987411835
7.68,-0.034539678786376544
7.682,-0.06873795582037831
7.684,-0.003208454626775943
7.686,-0.025530190678472797
7.688,-0.023318228203124673
7.69,-0.029589461026656376
7.692,-0.04571608435884773
7.694,-0.05912354997435347
7.696,-0.02275784680369542
7.698,-0.02087432750669113
7.7,-0.0606938220653455
7.702,-0.009713607066211247
7.704,-0.07486684736376585
7.706,-0.04336150504054983
7.708,-0.02847687013856204
7.71,-0.04462454258747096
7.712,-0.0234877332448886
7.714,-0.005812548656757038
7.716,-0.047079722443224885
7.718,-0.04767824867343588
7.72,-0.0241150372813709
7.722,-0.09762930674200088
7.724,-0.030350157891569397
7.726,-0.026757677020653906
7.728,-0.010069053435608655
7.73,-0.04101831178836317
7.732,-0.07211124605444734
7.734,-0.012051611297078772
7.736,-0.036396903595207225
7.738,-0.02271783616866653
7.74,0.012292571131876977
7.742,-0.015507669961559823
7.744,-0.0017644194787263465
7.746,-0.05676860047277995
7.748,0.0188180802057655
7.75,-0.01001352960517423
7.752,0.008600691717182779
7.7540000000000004,0.0017447437197966043
7.756,-0.006423918167285485
7.758,-0.0238182638456065
7.76,0.01088937195626533
7.7620000000000005,-0.005614299190932016
7.764,-0.01174887091903317
7.766,0.0169266718507695
7.768,-0.010234782200240919
7.7700000000000005,0.03285190549810866
7.772,0.03582050390806367
7.774,0.006519994088425213
7.776,0.007361767899472266
7.7780000000000005,0.04392792233592241
7.78,0.019124300752900364
7.782,0.00312848367955626
7.784,0.004989374873957356
7.7860000000000005,0.024875453990225907
7.788,0.05541909846152274
7.79,0.06301875135732597
7.792,0.03519853311922793
7.7940000000000005,0.0805361913101297
7.796,0.038438721098903714
7.798,0.038163029404895604
7.8,0.07984453462446012
7.8020000000000005,0.060651851008021056
7.804,0.10046918140382535
7.806,0.06975152660197487
7.808,0.051914458124543476
7.8100000000000005,0.079115891456581
7.812,0.04957043548302752
7.814,0.08143002106211325
7.816,0.07910009106951495
7.8180000000000005,0.11103936198015792
7.82,0.05061326165643004
7.822,0.0887182851368152
7.824,0.04097828468872034
7.8260000000000005,0.08643707662529396
7.828,0.04447154046661507
7.83,0.019441605834043196
7.832,0.055999778281824376
7.8340000000000005,0.04044250809413243
7.836,0.05524246829157106
7.838,0.06515526588898182
7.84,0.023272549823306177
7.8420000000000005,0.04140450576601304
7.844,0.07819658967003214
7.846,0.025438214700470266
7.848,0.044731278117014814
7.8500000000000005,0.045221481409850564
7.852,0.0007218684487781124
7.854,0.04464583476458189
7.856,0.05973841433237026
7.8580000000000005,0.009708897862443881
7.86,-0.004057310944651157
7.862,-0.014733173077841291
7.864,-0.03478439029136241
7.8660000000000005,0.02248390466234986
7.868,-0.013244508869247447
7.87,0.04249954463017449
7.872,-0.02418512455202881
7.8740000000000006,-0.01215747597337035
7.876,-0.024478333815342392
7.878,-0.021133322998788798
7.88,-0.01791118605377275
7.882000000000001,-0.05199362185538538
7.884,-0.07455597499130251
7.886,-0.052030943530993724
7.888,-0.06548362410642128
7.890000000000001,-0.09463697686251599
7.892,-0.09875887792959992
7.894,-0.05911837094418372
7.896,-0.09200165217385708
7.898000000000001,-0.07328200335582793
7.9,-0.09968384559459792
7.902,-0.09091970050367602
7.904,-0.07317068936346038
7.906000000000001,-0.08012923195274865
7.908,-0.07701283227161734
7.91,-0.02276698307468694
7.912,-0.035711119556312135
7.914000000000001,-0.01102486315214918
7.916,0.02532755678790238
7.918,0.0961582828834234
7.92,0.10375025409560298
7.922000000000001,0.14185513787133375
7.924,0.18187087212163294
7.926,0.24120748002938483
7.928,0.2746238506616597
7.930000000000001,0.3061512680155596
7.932,0.34975228303501804
7.934,0.41470137281401465
7.936,0.4787839040952139
7.938,0.5151271570004063
7.94,0.5478833291027477
7.942,0.6121478145349954
7.944,0.7096799387004475
7.946,0.7629225115968356
7.948,0.8050789829185829
7.95,0.8197922350754132
7.952,0.8610419363845017
7.954,0.9293784878753818
7.956,0.9500218187848114
7.958,0.93827067763373
7.96,0.9359227377092668
7.962,0.9758051437437336
7.964,0.9616661969970792
7.966,0.9647332953250707
7.968,0.9566529420659303
7.97,0.9145935328372693
7.972,0.9393635772328296
7.974,0.8962710563256321
7.976,0.8532853480624986
7.978,0.8556183630035148
7.98,0.8655395739446552
7.982,0.7739243973803198
7.984,0.7641858069416367
7.986,0.6896327312438364
7.988,0.6563650654933195
7.99,0.6135338890970286
7.992,0.5687393867972292
7.994,0.5003402252039417
7.996,0.42649561936863395
7.998,0.421980098115416
8.0,0.38788038021836085
8.002,0.32981311757325016
8.004,0.282831540835805
8.006,0.2465759600893846
8.008000000000001,0.22663522665150265
8.01,0.16945536137956266
8.012,0.17001657754214797
8.014,0.13500195273397533
8.016,0.10048591295976413
8.018,0.06039835880428025
8.02,0.04414405059801546
8.022,0.05917420084785803
8.024000000000001,0.04085579459169045
8.026,-0.00396387288943082
8.028,0.013444239830781968
8.03,0.03852710640810733
8.032,-0.0261996189349527
8.034,0.0021186134566246115
8.036,0.020317421874112052
8.038,-0.004617628580137603
8.040000000000001,-0.00886891212162609
8.042,0.03760903546240384
8.044,-0.03084198228870058
8.046,0.00054825703581593
8.048,0.012886981496988182
8.05,-0.00912902735730007
8.052,-0.00865203008911438
8.054,-0.0011511188065226712
8.056000000000001,-0.015550683231632521
8.058,0.021417155891084387
8.06,0.03926567944801598
8.062,0.004791139544053569
8.064,0.02544160921990479
8.066,-0.0056234915545453484
8.068,0.007881668786398
8.07,0.016255496668563137
8.072000000000001,0.008370627441915945
8.074,0.005355804964147284
8.076,0.006631295242933415
8.078,0.019347544302101612
8.08,-0.02778193234073057
8.082,0.032102603907281146
8.084,0.02526473271951435
8.086,-0.006889664072702557
8.088000000000001,-0.010446747387090019
8.09,-0.030397173441799607
8.092,0.042449604052985895
8.094,0.008367329774607937
8.096,-0.014837776569821532
8.098,0.009218300541990422
8.1,0.005256565562160299
8.102,0.04618623819776366
8.104000000000001,0.054304660914021544
8.106,0.03909178040788611
8.108,0.012272309865723908
8.11,0.03603541413404159
8.112,0.013988194129168682
8.114,0.03386981035275849
8.116,0.04435061907565786
8.118,0.04021703523414333
8.120000000000001,0.02687488037807398
8.122,0.063462095903565
8.124,0.04029877357949968
8.126,0.033431816962998476
8.128,0.02498654477797193
8.13,-0.013654366833296037
8.132,0.04128725766851174
8.134,0.02847406288174597
8.136000000000001,0.002034291391652878
8.138,0.04840201098212473
8.14,0.02889034511646723
8.142,0.028985952583351352
8.144,0.06013519103140024
8.146,0.055857376937564956
8.148,-0.0007589711470051331
8.15,0.047435600611645624
8.152000000000001,0.013537883831946962
8.154,0.019961240841518308
8.156,0.024044754661515913
8.158,0.023002157805004808
8.16,-0.004695676766075543
8.162,0.03516774906621284
8.164,0.01865656845124443
8.166,0.04043191305336066
8.168000000000001,0.046337310416397944
8.17,-0.0021303906592893412
8.172,0.038140920484632086
