time,ecg
0.0,-0.0020304983753548717
0.002,-0.01955790419500952
0.004,0.02098309031166447
0.006,-0.025850127763038275
0.008,0.005517764987905432
0.01,-0.016070943736771575
0.012,-0.030917755669274644
0.014,-0.029178147469713683
0.016,-0.021821449614730006
0.018000000000000002,-0.0321788286243656
0.02,0.02273500064790904
0.022,0.016535735375315736
0.024,0.02003570741357523
0.026000000000000002,0.022476427179052978
0.028,0.02790927571190454
0.03,0.023557041983763696
0.032,0.0028275049615447377
0.034,0.001652802805091596
0.036000000000000004,0.03762926219202553
0.038,0.02995451457517776
0.04,0.009487132675274176
0.042,0.02874082257078371
0.044,0.0410034088858067
0.046,0.07249880543569234
0.048,0.01464328533971113
0.05,0.03165618054667555
0.052000000000000005,0.0002166143131478379
0.054,0.07553784713860848
0.056,0.059283943491834655
0.058,0.06412727183290003
0.06,0.11916209475053088
0.062,0.06152350760682858
0.064,0.08162755366214004
0.066,0.06147860239194376
0.068,0.07783252080072989
0.07,0.03164953844378977
0.07200000000000001,0.053079038882284595
0.074,0.0869595869817737
0.076,0.08824697241414232
0.078,0.11737073064702738
0.08,0.10172119588211126
0.082,0.07905492553939467
0.084,0.09400318316647903
0.08600000000000001,0.10957908539532768
0.088,0.06808553107544485
0.09,0.07807509173121974
0.092,0.14777818594505257
0.094,0.1342701463099373
0.096,0.15126683508347286
0.098,0.14101822579043544
0.1,0.14787007502996774
0.10200000000000001,0.08374566499398643
0.10400000000000001,0.12447767877765925
0.106,0.1570123005338123
0.108,0.10374607115015451
0.11,0.1325412320378135
0.112,0.12496229584298026
0.114,0.1351178851139694
0.116,0.12507338971036652
0.11800000000000001,0.08505380271729289
0.12,0.10436440779428274
0.122,0.1047658215432155
0.124,0.12367041571397949
0.126,0.10783441168892513
0.128,0.08984214246223315
0.13,0.1152443385966425
0.132,0.09404794599089825
0.134,0.0874954450511061
0.136,0.06088862135264468
0.138,0.09482580063297388
0.14,0.07293016075074257
0.14200000000000002,0.06177016265373757
0.14400000000000002,0.05291479135516566
0.146,0.04833679638451058
0.148,0.06374339367344953
0.15,0.03159366803013314
0.152,0.024955268666747053
0.154,0.025604934787846916
0.156,0.011341038949633439
0.158,0.010506691303580309
0.16,0.027633765798166735
0.162,-0.017863501816789668
0.164,0.00034426129065988353
0.166,-0.014625846747725723
0.168,0.014403517047855682
0.17,0.007302652653011707
0.17200000000000001,-0.02427923126932471
0.17400000000000002,-0.04312847336846665
0.176,-0.0309851636779217
0.178,-0.0525466890590238
0.18,-0.055305803386009475
0.182,-0.043907714216767826
0.184,-0.04971320979771977
0.186,-0.00020852251883778095
0.188,-0.057222901021492176
0.19,-0.02787118105273511
0.192,-0.06809783760013856
0.194,-0.002805630293655055
0.196,-0.0010437747010967335
0.198,0.013915628562485918
0.2,0.054117859913976545
0.202,0.08203738241225626
0.20400000000000001,0.10160242671673997
0.20600000000000002,0.11879731295746636
0.20800000000000002,0.15158700519210586
0.21,0.2490568399907997
0.212,0.2627042932860524
0.214,0.28604066711320497
0.216,0.36330150800407907
0.218,0.41884745438204624
0.22,0.46917911093101095
0.222,0.49830796126124044
0.224,0.5778932637276547
0.226,0.648354235283766
0.228,0.6653162898952555
0.23,0.7064076938554196
0.232,0.7903502135627052
0.234,0.8331111037735828
0.23600000000000002,0.8390058638070824
0.23800000000000002,0.8814924714017436
0.24,0.9688975049165107
0.242,0.9893832848065407
0.244,1.025903364285029
0.246,1.0686318275293032
0.248,1.0019863266462232
0.25,1.0190166682227308
0.252,1.0446846778810177
0.254,1.0006514363639303
0.256,1.0020695933237804
0.258,0.9817769512154615
0.26,0.9676047030409515
0.262,0.9654317310557025
0.264,0.9267150505688004
0.266,0.8706470149196225
0.268,0.8088018242569206
0.27,0.7703093526666261
0.272,0.7019792477069683
0.274,0.6960579939231484
0.276,0.6314868078294197
0.278,0.5787379176886899
0.28,0.5449558543976307
0.28200000000000003,0.49410663823008566
0.28400000000000003,0.4682752822578452
0.28600000000000003,0.41499515146183436
0.28800000000000003,0.3483820139156788
0.29,0.30676667399107593
0.292,0.2843403036803512
0.294,0.23081919291492156
0.296,0.22651077256456015
0.298,0.175936885544146
0.3,0.12869771660158255
0.302,0.15078716414847726
0.304,0.09456358074759928
0.306,0.08288759381481181
0.308,0.08809550313516656
0.31,0.024785983507271306
0.312,0.04461366186551497
0.314,0.02112147593401472
0.316,0.04542512884434998
0.318,0.02229827670783424
0.32,0.033804968313896094
0.322,0.04468568576943926
0.324,-0.0008349231065192322
0.326,0.02109633395586669
0.328,0.03297212262863327
0.33,0.03511209131447196
0.332,0.021014850595821623
0.334,0.012253240479811937
0.336,0.0413186413647571
0.338,0.05121232622389286
0.34,0.0462402997534397
0.342,-0.0065830859743048805
0.34400000000000003,0.033120017459818726
0.34600000000000003,0.039022566954326085
0.34800000000000003,0.034273088270475635
0.35000000000000003,0.025122161874428024
0.352,0.040795492623874545
0.354,0.053615584943210025
0.356,0.051676906449844164
0.358,0.02105805908831232
0.36,0.023448365608883248
0.362,0.024586900313700404
0.364,0.03916892982801437
0.366,0.07177458836211058
0.368,0.08704296309306274
0.37,0.041375466491774114
0.372,0.03806578589698624
0.374,0.05239762839212149
0.376,0.02631446486854546
0.378,0.031320010047523356
0.38,0.02360416228281803
0.382,0.04082173267071503
0.384,0.07028080532179562
0.386,0.05565522534807289
0.388,0.03926530567813509
0.39,0.04407208508880606
0.392,0.05186167224728172
0.394,0.027071366475518683
0.396,0.040725597664409294
0.398,0.049555732898176504
0.4,0.010146089909414327
0.402,0.050307836258072634
0.404,0.07170991284287498
0.406,0.09104279409945064
0.40800000000000003,0.021821536011871104
0.41000000000000003,0.08772630937785034
0.41200000000000003,0.06267069030293897
0.41400000000000003,0.03810606238718815
0.41600000000000004,0.05491831559927871
0.418,0.046772306927003335
0.42,0.025959640089345856
0.422,0.07109645780237153
0.424,0.07933317105322922
0.426,0.0044464259837012745
0.428,0.07051154545971798
0.43,0.019699907657346152
0.432,0.023080651893668872
0.434,0.05865330176082516
0.436,0.06416335505911615
0.438,0.027349089149510047
0.44,0.06574097495760435
0.442,0.05538288752132176
0.444,0.02275908307218557
0.446,-0.013689627376763661
0.448,0.06648061089066083
0.45,0.07657743522740836
0.452,0.05088225771477084
0.454,0.06055568947149308
0.456,0.027329864039940005
0.458,0.050027787037324835
0.46,0.041223840448913
0.462,0.031013582263125585
0.464,-0.011559329091453132
0.466,0.04041442020595251
0.468,0.03417762848307502
0.47000000000000003,0.034111214846392596
0.47200000000000003,0.05243815995036754
0.47400000000000003,0.03598546194115665
0.47600000000000003,0.047011401017983144
0.47800000000000004,0.03775185721525431
0.48,0.013683982587920543
0.482,0.05674191226044343
0.484,0.05571144119891085
0.486,0.035727423090379046
0.488,0.03024406941265554
0.49,-0.002092722230818019
0.492,-0.013095047822057261
0.494,0.006857541558094021
0.496,0.003070643608524909
0.498,0.007461295114176175
0.5,0.021534804504368996
0.502,0.04165315091459929
0.504,0.003366596478916163
0.506,-0.005455152186728776
0.508,0.0028110470355434125
0.51,-0.03136834438965876
0.512,0.00463420263311369
0.514,0.0058262019555320455
0.516,0.013808043440212615
0.518,0.011075509870843249
0.52,-0.0004868716336748555
0.522,-0.01776010707446779
0.524,-0.029983196355197667
0.526,-0.013180303442980407
0.528,-0.04840145591233069
0.53,-0.03472960819426272
0.532,-0.032220981804912285
0.534,0.006552521125590169
0.536,-0.010608114595504106
0.538,-0.03887834102835711
0.54,-0.0756638377147657
0.542,-0.07467074362803956
0.544,-0.06452612960355414
0.546,-0.03222930098376531
0.548,-0.07984593546582722
0.55,-0.017634987548360653
0.552,-0.05167819828988967
0.554,-0.06204504684954834
0.556,-0.059409289982243804
0.558,-0.048505048424029015
0.56,-0.04571096511312488
0.562,-0.07059838433723145
0.5640000000000001,-0.08161964527039073
0.5660000000000001,-0.09934270249110928
0.5680000000000001,-0.11284221560544565
0.5700000000000001,-0.15240682029068636
0.5720000000000001,-0.08280649112607735
0.5740000000000001,-0.08519870034862258
0.5760000000000001,-0.09160837292870257
0.578,-0.08315702576031932
0.58,-0.08047623250441047
0.582,-0.0755435397324751
0.584,-0.10010210774835153
0.586,-0.1255137721120384
0.588,-0.09611868702905332
0.59,-0.05087029074822462
0.592,-0.10254535462299354
0.594,-0.05209262824618269
0.596,-0.09140017607662865
0.598,-0.09338291396866437
0.6,-0.08216912107118055
0.602,-0.13389708719780136
0.604,-0.11259117407601091
0.606,-0.09636524783180819
0.608,-0.13130204081401042
0.61,-0.08310101939758556
0.612,-0.11219561430512227
0.614,-0.09141116245027447
0.616,-0.0961202163350029
0.618,-0.07832377705096509
0.62,-0.08200746379635628
0.622,-0.09312746347287394
0.624,-0.10413336872253937
0.626,-0.08958081883404888
0.628,-0.0726884582089135
0.63,-0.03938154777054639
0.632,-0.08220397450448426
0.634,-0.08482263028099066
0.636,-0.09138216467918243
0.638,-0.0476092342125968
0.64,-0.08393237672266153
0.642,-0.050856758701674915
0.644,-0.06205225613362008
0.646,-0.09229579745330924
0.648,-0.058083219082486294
0.65,-0.09093238932214845
0.652,-0.046624628917730934
0.654,-0.02544940946059271
0.656,-0.019503519962285013
0.658,-0.03931334291466421
0.66,-0.05382755231216743
0.662,-0.014665103573131055
0.664,0.01937470811015575
0.666,-0.027028649962002597
0.668,-0.02762928171648827
0.67,-0.03884528549457817
0.672,-0.022379963733278024
0.674,-0.0024469012168374243
0.676,-0.03111076094359131
0.678,-0.0019108142499059955
0.68,-0.02228978335249448
0.682,-0.005090522206628326
0.684,-0.0038899506627327538
0.686,-0.016249599442894717
0.6880000000000001,-0.002004477984048479
0.6900000000000001,-0.008512186054681473
0.6920000000000001,0.031053303422234578
0.6940000000000001,-0.0008886241258945007
0.6960000000000001,-0.01916793525145982
0.6980000000000001,0.013759753092808885
0.7000000000000001,-0.0163996918312372
0.7020000000000001,0.03532141317374271
0.704,-0.017170803522391444
0.706,-0.0069779408364636294
0.708,0.015453475908609685
0.71,0.027498411644891183
0.712,0.019953952604679432
0.714,0.025284514394964843
0.716,0.0013345912261998813
0.718,-0.020204812614026884
0.72,0.0007564443438278293
0.722,0.016219291607041227
0.724,-0.0064719658793342075
0.726,0.028239543937068762
0.728,0.027824204254144683
0.73,0.020315906016800188
0.732,0.013911462768414132
0.734,0.027015889810937423
0.736,0.0009791342505901558
0.738,0.014635708868103087
0.74,0.053959384404368455
0.742,0.01408505159200474
0.744,0.025751699034790916
0.746,0.009606240029015493
0.748,0.053668258763002706
0.75,0.0026596009614931228
0.752,0.029338978689505083
0.754,0.021339007759088358
0.756,0.04151455798493414
0.758,0.0473182109491347
0.76,0.012505116104306513
0.762,0.03196720023982884
0.764,0.05097041075001914
0.766,0.03898174529344246
0.768,-0.016331318056676435
0.77,0.0676128635879964
0.772,0.017816316391822202
0.774,0.06421386242767113
0.776,0.017083292831131216
0.778,0.0492495866072964
0.78,0.005332565042231414
0.782,-0.04256113519481274
0.784,0.012184467526971653
0.786,0.042559538225317634
0.788,0.039483897721571425
0.79,0.035865144329775785
0.792,0.028688183677064865
0.794,0.025018573752091842
0.796,0.01788502188301819
0.798,0.03934474580318786
0.8,0.03574540830374433
0.802,0.023675864648702763
0.804,0.05798289026664153
0.806,0.037388702543894564
0.808,0.024289572325031865
0.81,0.025015657455690277
0.812,0.03780945020409809
0.8140000000000001,0.024179421452509647
0.8160000000000001,0.0613398882163911
0.8180000000000001,0.07915190929324953
0.8200000000000001,0.0066182419176974245
0.8220000000000001,0.035708702320386025
0.8240000000000001,0.00540407673898855
0.8260000000000001,0.005496373810005129
0.8280000000000001,0.02578430146489415
0.8300000000000001,0.04993424188660265
0.8320000000000001,-0.007394380178974244
0.834,-0.0032077555254342743
0.836,0.04294885940860599
0.838,0.03745392650797351
0.84,0.024552036814184833
0.842,0.023312077054968905
0.844,0.008331871711340047
0.846,0.008026208758357902
0.848,0.005979503089589312
0.85,0.03207609307937545
0.852,0.03249796177300908
0.854,0.030458133211108608
0.856,0.01074497040442205
0.858,0.043439852188898155
0.86,0.012003248908365379
0.862,0.017793806097211484
0.864,0.03204934030012775
0.866,0.027470199921544765
0.868,0.027718663740871893
0.87,0.01959366367817733
0.872,0.0021888732163900596
0.874,0.028435027734528613
0.876,0.027011059120878565
0.878,-0.010901033810926601
0.88,0.05191418439908487
0.882,0.023536219628438104
0.884,0.03653278626208462
0.886,0.029939045567784935
0.888,0.05543902531401726
0.89,0.01648892692756474
0.892,0.016593904190725654
0.894,0.03739077020944305
0.896,0.011570211713910292
0.898,0.03493989681757046
0.9,0.028479789823935682
0.902,0.04371243412893837
0.904,0.05547446455283731
0.906,0.0825185355558044
0.908,0.0638290954110865
0.91,0.05254377195969387
0.912,0.037845808105723786
0.914,0.05468009664151821
0.916,0.09093906105249172
0.918,0.06651424804121157
0.92,0.07605667792210322
0.922,0.07278533974722497
0.924,0.06415234342167014
0.926,0.06849237628409813
0.928,0.11705473664131846
0.93,0.10574969020635616
0.932,0.10031543654667793
0.934,0.09636765271917316
0.936,0.07215883646445397
0.9380000000000001,0.10673958401877168
0.9400000000000001,0.0642596725847984
0.9420000000000001,0.09892095571650719
0.9440000000000001,0.1145521094435987
0.9460000000000001,0.09420977938796748
0.9480000000000001,0.06854163265552872
0.9500000000000001,0.10425558806774457
0.9520000000000001,0.10953474507028119
0.9540000000000001,0.14531261635050138
0.9560000000000001,0.08221739970812075
0.9580000000000001,0.12012262862186374
0.96,0.11386243674013467
0.962,0.11672474102414448
0.964,0.11164796578223654
0.966,0.12858356753545233
0.968,0.09827081660112816
0.97,0.0744685780113056
0.972,0.09956671072428823
0.974,0.09649253552125572
0.976,0.10109746327804553
0.978,0.06808132405617033
0.98,0.10136612075294014
0.982,0.03134793514058118
0.984,0.0787695328580482
0.986,0.08888677342035164
0.988,0.051261135919216834
0.99,0.07396381756838843
0.992,0.03633975594909901
0.994,0.05160544542214583
0.996,0.08082857152742354
0.998,0.06048250835068161
1.0,0.045926925234904645
1.002,0.02010928309558135
1.004,0.014828273391099066
1.006,0.018566089283296054
1.008,0.017329633600799824
1.01,-0.004309532973050267
1.012,-0.00932655284276538
1.014,-0.01981292926965014
1.016,-0.0030799284718331043
1.018,-0.03812167803275971
1.02,-0.02495589127621127
1.022,-0.042062801509924044
1.024,-0.016916608406604146
1.026,-0.019927391032135474
1.028,-0.06706471555154611
1.03,-0.05363226557834906
1.032,-0.0813439620886221
1.034,-0.03521762340132485
1.036,-0.07437607772257776
1.038,-0.0837147835173308
1.04,-0.0913138868008508
1.042,-0.06133964082520152
1.044,-0.08079402876305025
1.046,-0.0994815912391486
1.048,-0.0524432010277494
1.05,-0.06576871325042181
1.052,-0.05107442617324444
1.054,0.004290178527447244
1.056,-0.011009098668217154
1.058,0.02411563256157856
1.06,0.032864116262194064
1.062,0.05344091018213855
1.064,0.10947010757581342
1.066,0.16344372224958578
1.068,0.17106100253580975
1.07,0.2667626923410396
1.072,0.2971680365171089
1.074,0.3575486594292387
1.076,0.3879785906388598
1.078,0.4211453063961716
1.08,0.480180340204595
1.082,0.5482703154706482
1.084,0.6018708323155891
1.086,0.65189398990232
1.088,0.6803342392817475
1.09,0.7480008639337066
1.092,0.7902557129023714
1.094,0.8281506480276639
1.096,0.8759233165676485
1.098,0.8952622152771904
1.1,0.948809605756539
1.102,0.9017650655829397
1.104,0.977255997545314
1.106,0.9675727480405102
1.108,0.9718712716527718
1.11,0.9853649075002616
1.112,0.9692180928960286
1.114,0.8904892658935316
1.116,0.910808947459444
1.118,0.9148848933845944
1.12,0.8633928612881316
1.122,0.842670398645374
1.124,0.7816031468277187
1.1260000000000001,0.7602630556254125
1.1280000000000001,0.683661557857977
1.1300000000000001,0.6828179693236138
1.1320000000000001,0.651263669263526
1.1340000000000001,0.5523594318456356
1.1360000000000001,0.49358644780185695
1.1380000000000001,0.4682447155475639
1.1400000000000001,0.4353641996049492
1.1420000000000001,0.3486188721766751
1.1440000000000001,0.333059982282361
1.1460000000000001,0.273296659488873
1.1480000000000001,0.22517350885863952
1.1500000000000001,0.2017934257044227
1.1520000000000001,0.12114268897719593
1.154,0.13793388760838488
1.156,0.08367352468541796
1.158,0.09872327137994287
1.16,0.0730579023176985
1.162,0.019636106988416654
1.164,0.026166387471385708
1.166,0.025194545332366744
1.168,-0.046118120661340405
1.17,-0.017323668364349346
1.172,-0.036773906579090805
1.174,-0.04868723940747978
1.176,-0.06122863215569398
1.178,-0.023990103789584393
1.18,-0.07736092815123315
1.182,-0.024066807617337985
1.184,-0.0025953053182360165
1.186,-0.01874671087608736
1.188,-0.07157523336698485
1.19,-0.03828564068904036
1.192,-0.07339253315484423
1.194,-0.04754027012751803
1.196,-0.020898591651138484
1.198,-0.007742422988197951
1.2,-0.03807748284257586
1.202,-0.014955463651664887
1.204,-0.03582304531932118
1.206,-0.05025906582762662
1.208,-0.029837840212736097
1.21,-0.03494911191584482
1.212,-0.017146183972182507
1.214,-0.023584814579666585
1.216,-0.00977903395509263
1.218,-0.04504362658240394
1.22,-0.05645868848158862
1.222,-0.02310975189409501
1.224,-0.052468356969665675
1.226,-0.012610599485047653
1.228,-0.01610553169328135
1.23,-0.03537794263231097
1.232,-0.015776526999746982
1.234,-0.06727143601348443
1.236,-0.03395403640087529
1.238,-0.050346272223544444
1.24,-0.0036711190150376743
1.242,-0.07554198963220342
1.244,-0.040457827347466814
1.246,-0.034170688415559924
1.248,-0.04181535332646102
1.25,-0.018008003868997195
1.252,-0.02934115069510235
1.254,-0.029084500583385416
1.256,-0.033073905549845246
1.258,-0.010790802981515264
1.26,-0.04367252077319589
1.262,-0.05361084597865344
1.264,-0.032652533834083675
1.266,-0.03290308838486754
1.268,-0.023363152981886633
1.27,-0.0458481047939542
1.272,-0.03874295714326717
1.274,-0.02122813371783597
1.276,-0.01390361958006581
1.278,-0.03152420059321536
1.28,-0.03719496581797705
1.282,-0.04986656183965158
1.284,-0.05961166538218894
1.286,-0.027639361417975458
1.288,-0.04848668854117365
1.29,-0.048096574235299484
1.292,-0.035693013124288964
1.294,-0.05029485028871661
1.296,-0.059074184862636964
1.298,-0.04864088187902131
1.3,-0.06592150917495088
1.302,-0.03656443074625914
1.304,-0.030928965885444373
1.306,-0.030236211783943534
1.308,-0.026215698930772573
1.31,-0.045005635503003856
1.312,-0.012961403576080423
1.314,-0.020550665809412862
1.316,-0.02979687822762717
1.318,-0.049274767521981455
1.32,-0.03162768005972906
1.322,-0.04957619687528243
1.324,-0.05974411218762499
1.326,-0.04626236766754752
1.328,-0.05191883915509746
1.33,-0.04909225224147875
1.332,-0.045053043140051784
1.334,-0.0690781823242244
1.336,-0.05369777031345166
1.338,-0.07971158975608905
1.34,-0.08380692631218027
1.342,-0.03589369552958923
1.344,-0.06917910784997156
1.346,-0.0419295271344647
1.348,-0.0284133730639781
1.35,-0.06587141804844414
1.352,-0.07262993657147995
1.354,-0.07337060718979306
1.356,-0.07516818640492802
1.358,-0.09354812650604599
1.36,-0.05016100874561204
1.362,-0.05070997738173222
1.364,-0.12285519109260264
1.366,-0.08471513521372338
1.368,-0.11950928194779054
1.37,-0.09208739592106086
1.372,-0.10596272449067873
1.374,-0.09924914268507207
1.3760000000000001,-0.12138656935577541
1.3780000000000001,-0.08386227640051977
1.3800000000000001,-0.09467326253145608
1.3820000000000001,-0.14740737439421192
1.3840000000000001,-0.13917470387318503
1.3860000000000001,-0.13958652377294803
1.3880000000000001,-0.09911001345087403
1.3900000000000001,-0.142126653684289
1.3920000000000001,-0.14328656646888305
1.3940000000000001,-0.13599166959670494
1.3960000000000001,-0.11966134704567377
1.3980000000000001,-0.08617798552179011
1.4000000000000001,-0.10806956335086422
1.4020000000000001,-0.15509866565896194
1.4040000000000001,-0.14873322887307858
1.4060000000000001,-0.12559780977290455
1.408,-0.14269336113536746
1.41,-0.17621450183271647
1.412,-0.17067296079445946
1.414,-0.15435733202327254
1.416,-0.1516628101803768
1.418,-0.17124548150400198
1.42,-0.17313830825061385
1.422,-0.1928649846046785
1.424,-0.1712851574431028
1.426,-0.188606351720844
1.428,-0.19665026486380727
1.43,-0.14795268966812114
1.432,-0.22686638635647938
1.434,-0.22188848330789337
1.436,-0.19442091256769828
1.438,-0.18510056104209605
1.44,-0.22487870883480718
1.442,-0.1894832216736343
1.444,-0.18251415473568938
1.446,-0.18213429426838673
1.448,-0.17746391423695243
1.45,-0.1883294507352915
1.452,-0.20419983708906075
1.454,-0.2160608332618943
1.456,-0.19348710340248734
1.458,-0.20751721249523744
1.46,-0.17824510859393664
1.462,-0.20989087921291905
1.464,-0.18803559067919323
1.466,-0.1952675856820785
1.468,-0.21413327333260973
1.47,-0.1919261831668751
1.472,-0.18473871687924126
1.474,-0.20814382430646694
1.476,-0.1783362616095276
1.478,-0.15658376175038563
1.48,-0.20951504657355308
1.482,-0.17889837078312343
1.484,-0.18453054061636703
1.486,-0.17814819813312877
1.488,-0.1993044308175056
1.49,-0.17361101161440262
1.492,-0.20288757396754234
1.494,-0.14683917614714356
1.496,-0.18717741647100428
1.498,-0.15989981563096112
1.5,-0.18804555833382208
1.502,-0.1619682558460321
1.504,-0.12259984235968034
1.506,-0.13925450066437803
1.508,-0.1293727271085196
1.51,-0.1344277101673443
1.512,-0.1749491014961815
1.514,-0.12968429238470383
1.516,-0.15305939393206686
1.518,-0.1672678877276606
1.52,-0.12363591267848931
1.522,-0.0955469703653348
1.524,-0.11346872282950067
1.526,-0.1284149250833197
1.528,-0.11714228508246995
1.53,-0.07084115470204402
1.532,-0.11872450660430112
1.534,-0.10016784862540562
1.536,-0.12968614787624852
1.538,-0.07785378055080718
1.54,-0.057891852201563225
1.542,-0.07887964092964958
1.544,-0.0862167100194029
1.546,-0.08885654801717999
1.548,-0.10657715008061538
1.55,-0.12121672118121496
1.552,-0.0989323526122135
1.554,-0.042755758674695256
1.556,-0.072826990563854
1.558,-0.0764273123252039
1.56,-0.06015402526754782
1.562,-0.08186926005314607
1.564,-0.08077996505380412
1.566,-0.08798709697334677
1.568,-0.05713189865341761
1.57,-0.08262109775647472
1.572,-0.08921469003450984
1.574,-0.08494500848309132
1.576,-0.08003862619639743
1.578,-0.03157639138864021
1.58,-0.09366704201233828
1.582,-0.06261787972551758
1.584,-0.03841856918246904
1.586,-0.05261040379319358
1.588,-0.05256373188984815
1.59,-0.06895760648869247
1.592,-0.07625535432703766
1.594,-0.05153923559744643
1.596,-0.05510934622203207
1.598,-0.05055336584269374
1.6,-0.07092862749060808
1.602,-0.04692641637096505
1.604,-0.003427475902197997
1.606,-0.04126138839055356
1.608,-0.06598928173730162
1.61,-0.03377271809731415
1.612,-0.06434328609938123
1.614,-0.060582367081374926
1.616,-0.047973206578556936
1.618,-0.09087342140637798
1.62,-0.050728232497599196
1.622,-0.07662289286648777
1.624,-0.008394687171212582
1.6260000000000001,-0.05425000954895341
1.6280000000000001,-0.07520904317722361
1.6300000000000001,-0.03256115059834839
1.6320000000000001,-0.050489496132155885
1.6340000000000001,-0.041834129785677965
1.6360000000000001,-0.01306292471753748
1.6380000000000001,-0.06626037334522948
1.6400000000000001,-0.04059505742721957
1.6420000000000001,-0.03903183009125971
1.6440000000000001,-0.060921424124781604
1.6460000000000001,-0.061710844864939704
1.6480000000000001,-0.002887953084225515
1.6500000000000001,-0.05560334444999806
1.6520000000000001,-0.05702019211171631
1.6540000000000001,-0.014012352442379996
1.6560000000000001,-0.06109967200101953
1.6580000000000001,-0.04902507131634045
1.6600000000000001,-0.05516604684073968
1.6620000000000001,-0.01299842750841461
1.6640000000000001,-0.03646611332201527
1.666,-0.09097510851261442
1.668,-0.03511994993230128
1.67,-0.010412918081385508
1.672,-0.0003502430513726739
1.674,-0.052431477051321375
1.676,-0.0722196036472595
1.678,-0.040925644343334615
1.68,-0.050497987238375695
1.682,-0.007442884523574332
1.684,-0.027076017356457285
1.686,-0.04958431496327742
1.688,-0.07696461674279573
1.69,-0.05125468931522754
1.692,-0.05970093946951703
1.694,-0.05354295115049992
1.696,-0.03390541064866332
1.698,-0.039196374129723745
1.7,-0.02737767517185354
1.702,-0.08047396650779567
1.704,-0.054411384597771756
1.706,-0.03168500346754263
1.708,-0.03585104591670234
1.71,-0.006269383580022981
1.712,-0.08472566737849728
1.714,-0.035501342696818296
1.716,-0.02069206420007451
1.718,-0.04945230868889143
1.72,-0.05067649497341198
1.722,-0.02480170509417859
1.724,0.004107414325397355
1.726,-0.0491790456267787
1.728,-0.010833317444696386
1.73,-0.06924970122281626
1.732,-0.018330232041392933
1.734,-0.04456457669314706
1.736,-0.024756048095198276
1.738,0.00308654681717453
1.74,0.005888594911425621
1.742,0.0024553706497061553
1.744,-0.055722455171768846
1.746,-0.034215394405893704
1.748,0.03705569392119697
1.75,-0.012387534282910381
1.752,0.014751358818621333
1.754,-0.020084347097369944
1.756,-0.016403647468603018
1.758,-0.015379832820099786
1.76,-0.009043804076964292
1.762,0.012419460759225745
1.764,-0.0074263134364771916
1.766,0.03778264114682671
1.768,0.008900122874747167
1.77,0.02307347219311419
1.772,0.010888325755077873
1.774,-0.0026681091161425835
1.776,0.00804592565965856
1.778,0.023377758402988134
1.78,0.015918737990176547
1.782,0.04169367202255182
1.784,0.022747949734960644
1.786,0.0271740286719939
1.788,0.012002741367960743
1.79,0.09412262004804665
1.792,0.07349810205328842
1.794,0.06302807719162618
1.796,0.05318861227521933
1.798,0.03120824999713257
1.8,0.05530460953408243
1.802,0.03304400769880111
1.804,0.053609617904209005
1.806,0.09345908751440518
1.808,0.04955020687983435
1.81,0.08028590463134885
1.812,0.08716380352494177
1.814,0.07039287874278269
1.816,0.057705111888077115
1.818,0.07732677479751557
1.82,0.10453435604772024
1.822,0.08604960800903429
1.824,0.09625661463916015
1.826,0.04917535096207719
1.828,0.03762200178286779
1.83,0.07595212088838108
1.832,0.06618504687136896
1.834,0.025179911368782275
1.836,0.06715319773803918
1.838,0.060928490527098964
1.84,0.06179000046041352
1.842,0.023889863726802983
1.844,0.026107981667244838
1.846,0.05537704437303825
1.848,0.04869713373955253
1.85,0.06840950537237914
1.852,0.04848225992909595
1.854,-0.006770735481190129
1.856,0.007937474232399891
1.858,0.007359614117348992
1.86,-0.026106204410353093
1.862,0.00035029283223164676
1.864,-0.026519670335411485
1.866,-0.003619815725699818
1.868,-0.014209616962485131
1.87,0.012968522881358113
1.872,-0.01759493901379769
1.874,-0.012487146391596069
1.8760000000000001,-0.0020238113189772425
1.8780000000000001,-0.011205171983908056
1.8800000000000001,-0.04361156963609257
1.8820000000000001,-0.04880343850804356
1.8840000000000001,-0.0744744949406987
1.8860000000000001,-0.04705375800667512
1.8880000000000001,-0.06539110944042428
1.8900000000000001,-0.09184689467030885
1.8920000000000001,-0.09535372130315661
1.8940000000000001,-0.0832481896556045
1.8960000000000001,-0.11067517463827337
1.8980000000000001,-0.0932358662535996
1.9000000000000001,-0.10658047465026863
1.9020000000000001,-0.053535329401612514
1.9040000000000001,-0.09389503683380268
1.9060000000000001,-0.06971536082054089
1.9080000000000001,-0.07013343422642193
1.9100000000000001,-0.06283124544576785
1.9120000000000001,-0.0023269519468380497
1.9140000000000001,0.0023941274834959336
1.9160000000000001,0.040323075930413496
1.9180000000000001,0.05982815591195422
1.92,0.09195034188111328
1.922,0.11748288140715979
1.924,0.16378036968569096
1.926,0.21830904412883045
1.928,0.27858236166504813
1.93,0.3431803771679393
1.932,0.35060136158118155
1.934,0.4054310995899423
1.936,0.49036272527597236
1.938,0.5291212636709711
1.94,0.5739839494398328
1.942,0.6027132892986791
1.944,0.6844467309089914
1.946,0.7238264173893699
1.948,0.7731142051798322
1.95,0.8331247773279603
1.952,0.8428100396157127
1.954,0.8793023632482142
1.956,0.8968223012426298
1.958,0.9279403432499544
1.96,0.9637320543900892
1.962,0.9715547944996346
1.964,0.9728465403074096
1.966,0.9899131753699433
1.968,0.9420346592514761
1.97,0.9484274965133282
1.972,0.9525965923938774
1.974,0.9346415038491167
1.976,0.8839017019082457
1.978,0.8809445376781276
1.98,0.842980695801212
1.982,0.7769464607569795
1.984,0.7627251704013311
1.986,0.735020433255997
1.988,0.6433343018783454
1.99,0.6405333057788568
1.992,0.5475022476122339
1.994,0.5479405418468004
1.996,0.4824048933001583
1.998,0.4285230306814401
2.0,0.36427260837406744
2.0020000000000002,0.3441491749080299
2.004,0.33499207296155875
2.0060000000000002,0.27293709888563084
2.008,0.2351623758534185
2.0100000000000002,0.14006131571385083
2.012,0.18223010847359195
2.0140000000000002,0.1220540711859501
2.016,0.09826182067830715
2.0180000000000002,0.059183852674801564
2.02,0.04760463535161735
2.0220000000000002,2.7260099379446817e-05
2.024,0.03389227412905235
2.0260000000000002,0.02001144129646238
2.028,0.017092713456554103
2.0300000000000002,0.013969978223471667
2.032,0.009106647738078833
2.0340000000000003,0.029088113642773826
2.036,0.0039008374856893575
2.0380000000000003,0.002870526264714398
2.04,-0.05971008479040629
2.0420000000000003,-0.022205867882356477
2.044,0.006934549181299723
2.0460000000000003,0.02331919872728573
2.048,-0.002436250442798455
2.05,0.0006082918154024682
2.052,-0.00632152195379038
2.054,-0.03304438559763877
2.056,-0.008295352536402113
2.058,-0.01970222627253026
2.06,0.027645986203408524
2.062,0.04187727366892361
2.064,0.020229554935397662
2.066,0.0387693902108491
2.068,-0.0044417783015164945
2.07,-0.002487770334420234
2.072,0.0104534065143734
2.074,0.021370291693580446
2.076,-0.004714269255908588
2.078,-0.01585354401939508
2.08,0.0028197581651002645
2.082,-0.015113876077514863
2.084,-0.015159930290909595
2.086,0.004876751184762622
2.088,0.023441796340356005
2.09,-0.015975714196040484
2.092,-0.010150586270730594
2.094,0.014622516839728992
2.096,-0.010575329835707765
2.098,0.024777716585769723
2.1,0.02091934704621748
2.102,-0.007587903647459562
2.104,0.007477095745599482
2.106,0.02711734390891874
2.108,0.010490824013111778
2.11,0.01087802275197072
2.112,0.0015163173414238819
2.114,0.009419513391372043
2.116,0.061736371866916925
2.118,0.042441803110841524
2.12,0.026798773004269336
2.122,-0.010794740152914296
2.124,0.03173495151804392
2.126,-0.014216150046847616
2.128,-0.00602373044578578
2.13,-0.004733572221854545
2.132,0.05367605076070691
2.134,-0.026922551622641382
2.136,-0.007137795695392731
2.138,0.06533189316990713
2.14,0.01823587347626311
2.142,0.027958620914188454
2.144,0.022345199401524886
2.146,0.028901515323318173
2.148,0.03445427109357775
2.15,0.023838987605833868
2.152,0.0015899668920430045
2.154,0.03231491948405409
2.156,0.04339578161492853
2.158,0.025067713978704085
2.16,0.04223963132478239
2.162,0.05272820400561373
2.164,0.030522223719479366
2.166,0.031560381733028976
2.168,0.024009687286715577
2.17,0.052826061479975914
2.172,0.04282172295781772
2.174,0.004170625183535912
2.176,0.029002897857530324
2.178,0.008093041731560648
2.18,0.016835457814512643
2.182,-0.007336915878190334
2.184,0.005037681341490642
2.186,0.014958218197237722
2.188,0.009749451948789699
2.19,0.005738087284127018
2.192,-0.0334927872477808
2.194,-0.014888909511862246
2.196,0.0052797533593914765
2.198,0.0029634813751283767
2.2,-0.011827411897120943
2.202,0.0038995091866693282
2.204,-0.01592209986427664
2.206,0.012556234697587654
2.208,0.012909449206558198
2.21,0.022496381170030187
2.212,0.02312951810695907
2.214,-0.012855432514871503
2.216,-0.01337009654146682
2.218,0.015810787080856877
2.22,-0.001068432786050344
2.222,0.013678903098866824
2.224,-0.015865374524159315
2.226,-0.03810971759795042
2.228,0.015273561507918532
2.23,-0.004500168918972945
2.232,-0.046334270077243514
2.234,-0.03493151358802549
2.236,-0.01894141769577764
2.238,-0.0214132195006144
2.24,0.0017940687987809678
2.242,-0.036286907344257144
2.244,-0.02660481787083198
2.246,0.030813134457648148
2.248,-0.03443654319977039
2.25,-0.027016738033591434
2.2520000000000002,-0.025638224354353874
2.254,-0.07141292589523747
2.2560000000000002,-0.03692616440486606
2.258,-0.05252117464237335
2.2600000000000002,-0.061284147550440655
2.262,-0.057773079089701765
2.2640000000000002,-0.059434736605859094
2.266,-0.0927310466723341
2.2680000000000002,-0.09585669650145826
2.27,-0.0582429667907562
2.2720000000000002,-0.08428594890837914
2.274,-0.08814648337385789
2.2760000000000002,-0.0809091185261241
2.278,-0.04914411698447568
2.2800000000000002,-0.08632754072592252
2.282,-0.11754624531673835
2.2840000000000003,-0.05891958761245382
2.286,-0.09348009616421377
2.2880000000000003,-0.11047594351685112
2.29,-0.08396526578534581
2.2920000000000003,-0.09902891561563953
2.294,-0.09622291823693961
2.2960000000000003,-0.14248665880071637
2.298,-0.08609217262843304
2.3000000000000003,-0.10199561536459534
2.302,-0.04267162072287678
2.3040000000000003,-0.09990470546111749
2.306,-0.1187878086186917
2.308,-0.06766703954556275
2.31,-0.12246880499078194
2.312,-0.10082776857491718
2.314,-0.09859920097775988
2.316,-0.11341465161162906
2.318,-0.08498927695617549
2.32,-0.06602999200344281
2.322,-0.06260147493065177
2.324,-0.09513243803122098
2.326,-0.10458314314495207
2.328,-0.0854945181626258
2.33,-0.07231010751443967
2.332,-0.10256422654150071
2.334,-0.1008049149250253
2.336,-0.10834588628551027
2.338,-0.14298249445048355
2.34,-0.12014485946245251
2.342,-0.1052246924403821
2.344,-0.11084164276925318
2.346,-0.09434898210285841
2.348,-0.10961186908907955
2.35,-0.05010214517590032
2.352,-0.0955874106411845
2.354,-0.060483832666801296
2.356,-0.07554884178535266
2.358,-0.08305146732792622
2.36,-0.04315975970582628
2.362,-0.11880441246669343
2.364,-0.07634530065445273
2.366,-0.08014887696741267
2.368,-0.025175194673945342
2.37,-0.045395942350556384
2.372,-0.07321375853226782
2.374,-0.025330192380730372
2.376,-0.04458015656166167
2.378,-0.04844310086935925
2.38,-0.0644352818226544
2.382,0.010477856391369361
2.384,-0.037187885841899894
2.386,-0.031426178253815676
2.388,-0.019445252519747123
2.39,-0.008787780212359951
2.392,-0.019019742656730086
2.394,-0.0016907044658139372
2.396,-0.033853845781940714
2.398,-0.016750469991678132
2.4,-0.001724656410274153
2.402,-0.014015919932892713
2.404,0.06201307615459125
2.406,0.039446598795242795
2.408,0.0015548235903540333
2.41,0.025998151730964057
2.412,0.02367600247759407
2.414,0.025003031153657297
2.416,-0.012894938749402514
2.418,0.005019193600507652
2.42,0.002954026357732932
2.422,0.014576294897988153
2.424,0.027965576075873595
2.426,0.004070335615858567
2.428,-0.006193818823222189
2.43,0.01704971772220627
2.432,0.00897315987354197
2.434,0.0190704579257648
2.436,0.033912239647537125
2.438,-0.00511775195474431
2.44,0.042848388149953454
2.442,0.049295039920277006
2.444,0.02411553022249728
2.446,0.028310942601490023
2.448,0.029426441217792323
2.45,0.02400328779557294
2.452,0.04378915520228124
2.454,0.04572573500476
2.456,0.0206370858685245
2.458,0.030811439199058228
2.46,0.044750050135829236
2.462,0.04040769118436368
2.464,0.0490697403229568
2.466,0.039347851390180696
2.468,0.03406441193046374
2.47,0.024156585300077346
2.472,0.05762144455627
2.474,0.0995051342740164
2.476,0.05711951806349477
2.478,0.04550118917060134
2.48,0.07719796463520405
2.482,0.09819487482839623
2.484,0.049197576386467656
2.486,0.022832139919187294
2.488,0.04537077243770258
2.49,0.05465262354666958
2.492,0.03855221918183579
2.494,0.06560301858183364
2.496,0.06799352266038762
2.498,0.0427146158924739
2.5,0.05656058307497329
2.5020000000000002,0.031480040184438805
2.504,0.014509759395494377
2.5060000000000002,0.05124178219159092
2.508,0.05607927468596124
2.5100000000000002,0.02338611385727387
2.512,0.07637942409091408
2.5140000000000002,0.09157275516648318
2.516,0.06832543938179354
2.5180000000000002,0.08260070751360828
2.52,0.04577671461685402
2.5220000000000002,0.024151524131812468
2.524,0.01877686036636596
2.5260000000000002,0.05407174452298344
2.528,0.05218319696920576
2.5300000000000002,0.055137466202937496
2.532,0.051499131257437644
2.5340000000000003,0.05151468507895231
2.536,0.06199057140907041
2.5380000000000003,0.01899022127518951
2.54,0.033935942408429266
2.5420000000000003,0.041809895760907795
2.544,0.020661755097500015
2.5460000000000003,0.05751055347363755
2.548,0.06525844427243592
2.5500000000000003,0.04043593248128979
2.552,0.03398997212977865
2.5540000000000003,0.034117804322625976
2.556,0.04072194008889707
2.5580000000000003,0.0378427814798949
2.56,0.030625004951600438
2.562,0.0582822481807839
2.564,0.03736185620269052
2.566,0.032936876695998214
2.568,0.015677350065145007
2.57,0.02744986624193778
2.572,0.046827171135857534
2.574,0.06034135622910512
2.576,0.04398798666033378
2.578,0.029585258421975357
2.58,0.040404608519591316
2.582,0.05736575394937486
2.584,0.038556296372705266
2.586,0.02931017986433532
2.588,0.09038314797693733
2.59,0.05184275248987048
2.592,0.11288183263733305
2.594,0.05170070994616206
2.596,0.0166184202201605
2.598,0.06399892992148062
2.6,0.06358327227257554
2.602,0.0425509294785542
2.604,0.09185544968512399
2.606,0.06785220350674637
2.608,0.06226083362419711
2.61,0.08173759497546561
2.612,0.013184455185138447
2.614,0.0699664536668674
2.616,0.038886950919796354
2.618,0.09437598864127955
2.62,0.11354463177537738
2.622,0.08564895611539577
2.624,0.09360024878584994
2.626,0.08943363277030006
2.628,0.07197052947842633
2.63,0.07708035057487723
2.632,0.12392532682417014
2.634,0.12144745237846727
2.636,0.12496324860104205
2.638,0.1214555376565116
2.64,0.12065574728163211
2.642,0.12044626340221185
2.644,0.13605086238908345
2.646,0.07995035696838346
2.648,0.14475216830965387
2.65,0.09644797014167567
2.652,0.16741426067497425
2.654,0.15869911831267797
2.656,0.1245973103393588
2.658,0.12400336845672005
2.66,0.14823249617187725
2.662,0.14522969253816326
2.664,0.1136233780419235
2.666,0.13445723842326326
2.668,0.12653840742277675
2.67,0.17304101545270223
2.672,0.16125498965669555
2.674,0.14821280407399953
2.676,0.12999719237676607
2.678,0.11833640691982479
2.68,0.12989862973298663
2.682,0.11261606716432992
2.684,0.16271445651359115
2.686,0.1376060742506925
2.688,0.13706486168855425
2.69,0.13110229869903517
2.692,0.1235261307271901
2.694,0.11989760454633054
2.696,0.136041396844383
2.698,0.09454662819596138
2.7,0.10678644178239105
2.702,0.10511575555659584
2.704,0.05149019114822061
2.706,0.07690688429420978
2.708,0.13935401280992477
2.71,0.07950387562123895
2.712,0.10652493350289469
2.714,0.020871477814001643
2.716,0.10552503044714946
2.718,0.08761021276083314
2.72,0.0715795651805196
2.722,0.1031558725305464
2.724,0.04421829928386721
2.726,0.07137394904588264
2.728,0.030757646621934476
2.73,0.05139865447128456
2.732,0.011659403260307729
2.734,0.020083017410116158
2.736,0.02989228204002371
2.738,-0.0061932945452179596
2.74,0.029643927744640385
2.742,-0.03701523754988503
2.744,-0.005528999644385427
2.746,-0.019338797436003745
2.748,-0.018556267993446438
2.75,-0.08642864088308364
2.7520000000000002,-0.047332940188596115
2.754,-0.03955399805105238
2.7560000000000002,-0.04408723334697174
2.758,-0.035545994351768764
2.7600000000000002,-0.039844148001117845
2.762,-0.018229497406212852
2.7640000000000002,0.014123406632134947
2.766,-0.022305385972943043
2.7680000000000002,-0.009926437420863809
2.77,0.008310511860827801
2.7720000000000002,0.05593717771969524
2.774,0.09391306188322224
2.7760000000000002,0.10504938938294443
2.778,0.1475832901849733
2.7800000000000002,0.1928833663825312
2.782,0.25977428747265974
2.7840000000000003,0.2970469266355971
2.786,0.3303897859332743
2.7880000000000003,0.37239870756656435
2.79,0.4205533966897737
2.7920000000000003,0.4934257498814814
2.794,0.5416517694913295
2.7960000000000003,0.57830178630912
2.798,0.6657407286764219
2.8000000000000003,0.6997139872225399
2.802,0.7454163149648779
2.8040000000000003,0.8188855636486907
2.806,0.8364155962094443
2.8080000000000003,0.910836906982281
2.81,0.8873313435346234
2.8120000000000003,0.9353115759560681
2.814,0.9678957279608593
2.816,0.983475147391297
2.818,1.0012644507604491
2.82,1.007993557762463
2.822,0.9822201808738371
2.824,1.0082730210528374
2.826,0.9744403834976205
2.828,1.013829796709282
2.83,0.9446241059245514
2.832,0.9331137583097879
2.834,0.934002984890912
2.836,0.9027623520291315
2.838,0.8185989701101274
2.84,0.8122211362540206
2.842,0.7524121714001215
2.844,0.7108345540524167
2.846,0.6410152909965898
2.848,0.5969739118370307
2.85,0.5830833711786989
2.852,0.4915289804849605
2.854,0.48950452668200817
2.856,0.42117281051125255
2.858,0.36656045460853204
2.86,0.32186000067993203
2.862,0.33042380408599004
2.864,0.2563282328532434
2.866,0.20315846840989643
2.868,0.18411530318864128
2.87,0.1459838231876634
2.872,0.07478832789345168
2.874,0.08892987938265123
2.876,0.05091297564171088
2.878,0.05948369135261586
2.88,0.06963441362728359
2.882,0.0005535016217686848
2.884,0.03879996276590673
2.886,-0.004258702958872552
2.888,-0.008957957406908352
2.89,0.009120501613765717
2.892,-0.009653585999567284
2.894,-0.029052110737567267
2.896,-0.01688568681436364
2.898,-0.018585770463079923
2.9,0.006175157308133863
2.902,-0.009601510177055737
2.904,-0.0058934833886682345
2.906,0.014387329776246576
2.908,-0.00312859286802435
2.91,0.011800586978705912
2.912,-0.008230185203542783
2.914,0.013793957037304688
2.916,0.02320593515550287
2.918,0.030156134350840857
2.92,3.9029803097982534e-05
2.922,0.044098232081594954
2.924,0.02868612253795135
2.926,-0.0004149458278734906
2.928,-0.0011073332005117334
2.93,0.00990975802281761
2.932,0.013382973923581351
2.934,0.02195435003520362
2.936,-0.0326795445677875
2.938,0.02204245413724667
2.94,0.037665065744323656
2.942,-0.014291288540043757
2.944,0.0043048839776995765
2.946,0.009877634847565627
2.948,-0.004309131264122264
2.95,-0.026921179147384556
2.952,0.019004274184618367
2.954,0.0006980315954616526
2.956,0.030340596027419457
2.958,0.006165884023702583
2.96,-0.0026817186983416467
2.962,0.013963141829131918
2.964,-0.03267340745224028
2.966,-0.00549280463563771
2.968,0.01418477926618232
2.97,-0.009476401547586798
2.972,0.0007663664629860483
2.974,0.020731205484353882
2.976,-0.011174296289788277
2.978,0.014771088918136652
2.98,0.006512497911845527
2.982,-0.005269535924007913
2.984,0.0020661407904784884
2.986,0.009401970865521588
2.988,-0.032203628109791244
2.99,0.0035312743747066104
2.992,0.008871648896609186
2.994,-0.00750113315521824
2.996,-0.011746699478348445
2.998,-0.006237834097614897
3.0,0.006350423563520122
3.0020000000000002,-0.018168248174483783
3.004,-0.00399629569056928
3.0060000000000002,0.004409359074621491
3.008,0.014940375253404272
3.0100000000000002,-0.03388741505537116
3.012,0.00029179690276757986
3.0140000000000002,0.024834356322484423
3.016,-0.00370853004738606
3.0180000000000002,-0.02778745244887861
3.02,-0.009394660572852492
3.0220000000000002,0.0036364715847933844
3.024,0.004361522757650394
3.0260000000000002,0.01623861191634603
3.028,0.016116237335840413
3.0300000000000002,-0.045985663969968504
3.032,0.0020960194074081907
3.0340000000000003,-0.03423603335111232
3.036,-0.039532685428818916
3.0380000000000003,-0.053415235761952486
3.04,-0.007725077431100749
3.0420000000000003,-0.03938419535545969
3.044,-0.01562884235843759
3.0460000000000003,-0.00790443438881399
3.048,-0.03447614680022986
3.0500000000000003,-0.014033605099646877
3.052,-0.08040376160431478
3.0540000000000003,-0.03590710249670977
3.056,-0.030140502421467423
3.0580000000000003,-0.03453169548983767
3.06,-0.03415079178992981
3.0620000000000003,0.03002372216362575
3.064,-0.03195441960306106
3.0660000000000003,-0.031182090139694776
3.068,-0.034605913162677165
3.0700000000000003,-0.04210029727219469
3.072,-0.04983858234057509
3.074,-0.06889221660561995
3.076,-0.027877179030862943
3.078,-0.05241471485583385
3.08,-0.061708510610985486
3.082,-0.07992146954708482
3.084,-0.07762602778211625
3.086,-0.05541007174072575
3.088,-0.045464032590209535
3.09,-0.060810619546328805
3.092,-0.05689570233769022
3.094,-0.06876531628276326
3.096,-0.06665267710184666
3.098,-0.0702124140143693
3.1,-0.08243547784445528
3.102,-0.04013139869913408
3.104,-0.07828454201141331
3.106,-0.07468871005052179
3.108,-0.0753290761810803
3.11,-0.11713519987904727
3.112,-0.07004836229214458
3.114,-0.10902765816008914
3.116,-0.10534970245737253
3.118,-0.10420628128444961
3.12,-0.08954577030601374
3.122,-0.1318563236359007
3.124,-0.11371941819678198
3.126,-0.14115970738865335
3.128,-0.1391501957949649
3.13,-0.13197767190825122
3.132,-0.156347468282789
3.134,-0.14305491933934733
3.136,-0.13121513774808463
3.138,-0.1428897683603756
3.14,-0.19152563677448156
3.142,-0.16260822705626546
3.144,-0.13117071377242912
3.146,-0.15332225336392827
3.148,-0.15055280283057224
3.15,-0.18621835698659603
3.152,-0.17343121668476186
3.154,-0.12232158726976464
3.156,-0.17332512033859038
3.158,-0.15611111235528552
3.16,-0.15325398754256556
3.162,-0.17328745110993216
3.164,-0.1697382276673067
3.166,-0.16848863352946578
3.168,-0.1774208859302492
3.17,-0.1994474722240058
3.172,-0.17907298919055267
3.174,-0.17182992528095897
3.176,-0.15633530272882992
3.178,-0.18104937387240905
3.18,-0.19430095205454329
3.182,-0.17024297853942547
3.184,-0.15086614304342527
3.186,-0.1547527855302399
3.188,-0.14506860985356496
3.19,-0.17893885807608914
3.192,-0.16928203975297315
3.194,-0.20171775487003996
3.196,-0.1420820625724143
3.198,-0.1293846678545819
3.2,-0.1878153982547717
3.202,-0.1357814653526853
3.204,-0.1447940754906653
3.206,-0.15485359129356446
3.208,-0.14076191550552547
3.21,-0.12070472168150692
3.212,-0.12682661063147163
3.214,-0.15306977273993044
3.216,-0.11838887824154835
3.218,-0.16642888105122838
3.22,-0.12705014501497008
3.222,-0.13589653873535537
3.224,-0.1287598054644873
3.226,-0.15662298475600195
3.228,-0.11742220360173303
3.23,-0.1018607902214396
3.232,-0.09351767193248979
3.234,-0.11284151403440515
3.236,-0.1054395084013917
3.238,-0.07935138791461087
3.24,-0.12317907838334811
3.242,-0.13252017064782445
3.244,-0.10555329747947217
3.246,-0.10043148037672439
3.248,-0.08347432637596225
3.25,-0.07054727517649664
3.2520000000000002,-0.12285736938754377
3.254,-0.13138354578343697
3.2560000000000002,-0.0862814949687789
3.258,-0.08237766519682324
3.2600000000000002,-0.09857183674372588
3.262,-0.0844351288151742
3.2640000000000002,-0.1029457030544568
3.266,-0.05293422912269232
3.2680000000000002,-0.09390058557881664
3.27,-0.05276610148647814
3.2720000000000002,-0.10049644062459867
3.274,-0.05949954624650944
3.2760000000000002,-0.06482009085763572
3.278,-0.09443460303076337
3.2800000000000002,-0.06398859423770153
3.282,-0.05917117087615957
3.2840000000000003,-0.07413178531271128
3.286,-0.06409000908194558
3.2880000000000003,-0.06479498065461699
3.29,-0.06494045910385901
3.2920000000000003,-0.061139169938226254
3.294,-0.04476178325217683
3.2960000000000003,-0.05663606002704359
3.298,-0.05894563939609494
3.3000000000000003,-0.06400775265845388
3.302,-0.04930369244813917
3.3040000000000003,-0.0795146946416852
3.306,-0.05386178633930285
3.3080000000000003,-0.05202988352930551
3.31,-0.05674998608521083
3.3120000000000003,-0.04828607308954899
3.314,-0.05191207752040227
3.3160000000000003,-0.03222769767370004
3.318,-0.060767577643573885
3.3200000000000003,-0.04280781630001219
3.322,-0.047236160955761004
3.3240000000000003,-0.05587352742852827
3.326,-0.07269284552126329
3.3280000000000003,-0.025567084608010743
3.33,-0.03024866926687494
3.332,-0.07769703112298858
3.334,-0.0864754454330423
3.336,-0.04325639250951692
3.338,-0.04713531538966858
3.34,-0.06770350290680482
3.342,-0.033170024551243765
3.344,-0.03905820601085125
3.346,-0.023103693188840545
3.348,-0.06214333751698915
3.35,-0.040819490073523625
3.352,-0.04862218024720115
3.354,-0.05968646901851318
3.356,-0.07401093392344216
3.358,-0.03991216646220527
3.36,-0.0590222120798531
3.362,-0.05766922140678715
3.364,-0.06727623777290119
3.366,-0.04071664669040317
3.368,-0.023787200052670262
3.37,-0.019593961380095407
3.372,-0.047379086716745185
3.374,-0.025250975541156705
3.376,-0.03879859622564051
3.378,-0.0337067317598529
3.38,-0.07342000193525436
3.382,-0.039022570445291636
3.384,-0.005532081339030051
3.386,-0.08102874426332306
3.388,-0.03166668565557172
3.39,-0.05443011869132109
3.392,-0.021418945416767726
3.394,-0.05311070103061674
3.396,-0.07858638073644218
3.398,-0.01566295142665991
3.4,-0.03882977774931849
3.402,-0.038606520839153675
3.404,-0.02774101057592329
3.406,-0.0073544632138849465
3.408,-0.051739774703593165
3.41,-0.04767606400381476
3.412,-0.042043234981250094
3.414,-0.03175408369566105
3.416,-0.055322796468692835
3.418,-0.011868273244089718
3.42,-0.01609093600316335
3.422,-0.044631764626179404
3.424,-0.04741257873267
3.426,-0.018738898713560482
3.428,-0.03969222319879831
3.43,-0.0445545937486884
3.432,-0.009553251593954046
3.434,-0.05809230940427676
3.436,-0.022988744754484935
3.438,-0.032399467024358274
3.44,-0.05046132638883569
3.442,-0.06011618653248449
3.444,-0.02463978450520793
3.446,-0.054846160893430834
3.448,-0.013258194296839524
3.45,-0.010880771121879913
3.452,-0.02738381495965933
3.454,-0.035466593538395985
3.456,-0.05322646846805537
3.458,-0.024342432504662347
3.46,-0.0011791197736108327
3.462,-0.02670228601212232
3.464,-0.03104329111709216
3.466,0.0037390621111547118
3.468,-0.043656804494708566
3.47,0.007425602899648706
3.472,-0.07496546318484756
3.474,-0.03284654276468394
3.476,-0.01511480400337372
3.478,-0.016878510614919767
3.48,-0.01528848455399505
3.482,-0.017891211327769323
3.484,0.0047450732378968435
3.486,-0.008000518940845379
3.488,-0.022780890140556995
3.49,-0.007112153444195156
3.492,0.06762022766449291
3.494,0.028356067864508387
3.496,0.03273360127488357
3.498,0.029061951204548013
3.5,0.04032194950442775
3.5020000000000002,0.05397961336552638
3.504,0.021631130291777018
3.5060000000000002,-0.00036314185145079614
3.508,0.05094497771852257
3.5100000000000002,0.014366515917520112
3.512,0.02467472799902777
3.5140000000000002,0.046673648302304256
3.516,0.027744277588969926
3.5180000000000002,0.0037760553700509347
3.52,0.03481777823810107
3.5220000000000002,0.04520457444102276
3.524,0.06467906193486102
3.5260000000000002,0.07487035790888891
3.528,0.05656103661200151
3.5300000000000002,0.06276666666945985
3.532,0.04266026755523109
3.5340000000000003,0.04940223197511023
3.536,0.047858828067104904
3.5380000000000003,0.08252535075599092
3.54,0.055388489595001304
3.5420000000000003,0.055362194636139506
3.544,0.04759708338629174
3.5460000000000003,0.046642012722187126
3.548,0.0062586624239713284
3.5500000000000003,0.043133606365428956
3.552,0.015259549739761374
3.5540000000000003,0.03518080255823187
3.556,0.023831552194367944
3.5580000000000003,0.009056879504065266
3.56,-0.01232686143463542
3.5620000000000003,0.009032342206833084
3.564,-0.0014417621953245058
3.5660000000000003,0.011072487971747716
3.568,0.008144393550006047
3.5700000000000003,-0.0364225152904012
3.572,-0.02462663713515552
3.5740000000000003,-0.004513510564316252
3.576,-0.018525461513488446
3.5780000000000003,-0.035188388714023716
3.58,-0.028973118795982827
3.5820000000000003,-0.006274809073255883
3.584,-0.015122391023748974
3.586,-0.056274902416250334
3.588,-0.04733142320093202
3.59,-0.08526664751834806
3.592,-0.05977801207057548
3.594,-0.07490511412811174
3.596,-0.1111399975273548
3.598,-0.10693645866553911
3.6,-0.03080671484201592
3.602,-0.13843108243755603
3.604,-0.07934114773784207
3.606,-0.10210417591832985
3.608,-0.1420685681100336
3.61,-0.12192679970536782
3.612,-0.12336360151028303
3.614,-0.12335354736260243
3.616,-0.14097042779641497
3.618,-0.11598496629760911
3.62,-0.10415956153205455
3.622,-0.08108484225966339
3.624,-0.08900860678290526
3.626,-0.0667650766243881
3.628,-0.017115940130624344
3.63,-0.006760973920237397
3.632,0.04570560188855322
3.634,0.0425703345670765
3.636,0.06477805958738037
3.638,0.1566078359902096
3.64,0.15910416616915926
3.642,0.22814703993769433
3.644,0.29893354147879164
3.646,0.2976999573822355
3.648,0.38602686810117803
3.65,0.4542858473391636
3.652,0.49682338979565
3.654,0.5313882772943861
3.656,0.5832578032481874
3.658,0.6558357059581112
3.66,0.6946741492677272
3.662,0.7405612582948263
3.664,0.817303492251977
3.666,0.8463349029066755
3.668,0.8774059165423864
3.67,0.8935660097091164
3.672,0.8842371005381572
3.674,0.9027312842433465
3.676,0.9149698744123971
3.678,0.9442374545111001
3.68,0.9427358145907287
3.682,0.9420599412536782
3.684,0.9165455735675948
3.686,0.9014359477176082
3.688,0.9051601238503735
3.69,0.8135405422162734
3.692,0.8355828168067687
3.694,0.8178175245771288
3.696,0.7366025622773121
3.698,0.7001305141208771
3.7,0.6615915973321738
3.702,0.6487183535114931
3.704,0.6031766325586072
3.706,0.5219979878447956
3.708,0.46589155585155717
3.71,0.42824086760898805
3.712,0.40982674869414143
3.714,0.34139975920017696
3.716,0.2771886241236437
3.718,0.2408812246283374
3.72,0.22620724772422965
3.722,0.169951638049221
3.724,0.12400476547643846
3.726,0.10237069113657443
3.728,0.07648150218818253
3.73,0.036739997716482495
3.732,0.017155473160930905
3.734,0.007165669935141346
3.736,0.025852821281730023
3.738,-0.026037207199560958
3.74,-0.019478920338070412
3.742,-0.01567064504818627
3.744,-0.06689149814902698
3.746,-0.050356478506387886
3.748,-0.04691586751665445
3.75,-0.06768259011163925
3.7520000000000002,-0.08428020587172086
3.754,-0.042154372610824054
3.7560000000000002,-0.08428761346636585
3.758,-0.052373318814091754
3.7600000000000002,-0.07698213565349521
3.762,-0.032178151255810465
3.7640000000000002,-0.007233896198026616
3.766,-0.04380499632052113
3.7680000000000002,-0.0512946362495404
3.77,-0.038502240840310245
3.7720000000000002,-0.010168666391948624
3.774,-0.048105925705997005
3.7760000000000002,-0.07056711737820663
3.778,-0.023001926247873176
3.7800000000000002,-0.05675061949164972
3.782,-0.036258617898820046
3.7840000000000003,-0.02809279575851579
3.786,-0.07358035708262393
3.7880000000000003,-0.06379299712340891
3.79,-0.0305011302881804
3.7920000000000003,-0.04657560896718153
3.794,-0.0033008096532170326
3.7960000000000003,-0.02787212101769858
3.798,0.028128454557301057
3.8000000000000003,-0.040251674431159574
3.802,-0.013793400218554075
3.8040000000000003,-0.03267808380208197
3.806,-0.03301654147106831
3.8080000000000003,-0.06324492162564331
3.81,-0.029000685720368097
3.8120000000000003,-0.0001505825418403471
3.814,-0.005918382626208946
3.8160000000000003,-0.03300038226830675
3.818,-0.03860614487262448
3.8200000000000003,-0.0303204688270182
3.822,-0.010290679535389487
3.8240000000000003,-0.02149920202001674
3.826,0.002080558462697205
3.8280000000000003,-0.025162768903603798
3.83,-0.049143003615784255
3.8320000000000003,-0.017121981495214888
3.834,-0.03993340562689517
3.8360000000000003,-0.02430005856513861
3.838,-0.041150939131833444
3.84,-0.04787305054280598
3.842,-0.048665220138458386
3.844,-0.027744944986964167
3.846,-0.027791116003752746
3.848,-0.05637069345341036
3.85,-0.03627159681971404
3.852,-0.032367081287795155
3.854,-0.027064954382283814
3.856,-0.013889932471784444
3.858,-0.03189949947818405
3.86,0.0009602451372430043
3.862,-0.03692998224546387
3.864,-0.035667030520844994
3.866,-0.011828926167046006
3.868,-0.02060911657733142
3.87,-0.037130073161247557
3.872,-0.0020625300726842483
3.874,-0.02528638815493793
3.876,-0.0316270279399827
3.878,-0.010783818418819056
3.88,-0.01336694290621281
3.882,-0.02452717048925595
3.884,-0.03564541189002641
3.886,-0.03738555359663091
3.888,0.008023900509643585
3.89,-0.04634563033488577
3.892,-0.04309304900577893
3.894,-0.04878984718079864
3.896,-0.03734417865209462
3.898,-0.009551140416624363
3.9,-0.047998814065222786
3.902,-0.05129745091449761
3.904,-0.03376640802382968
3.906,-0.02560504007967361
3.908,-0.04812009114474294
3.91,-0.009450300977280135
3.912,0.008121211387353156
3.914,-0.05611051194376545
3.916,-0.012986311293461804
3.918,-0.020769305580062715
3.92,-0.04596584451183551
3.922,-0.047127444198365856
3.924,-0.030092015099981814
3.926,-0.06822247447078206
3.928,-0.022508077129133996
3.93,-0.03558267186963448
3.932,-0.046263082046283835
3.934,-0.04908179725422391
3.936,-0.03988020363413107
3.938,-0.07139038555390904
3.94,-0.05309386243982057
3.942,-0.014372807341996807
3.944,-0.07152479490194627
3.946,-0.05171241680788999
3.948,-0.09845739511199253
3.95,-0.07738047565157863
3.952,-0.07100538747755658
3.954,-0.06234865504537769
3.956,-0.07931977765296848
3.958,-0.05550072690131594
3.96,-0.08451145282961929
3.962,-0.08526585572568393
3.964,-0.08463254359934799
3.966,-0.11778716999260158
3.968,-0.09223259730574822
3.97,-0.054909650482165125
3.972,-0.08135237356744243
3.974,-0.08009077928540058
3.976,-0.10869890054971265
3.978,-0.10474418132363175
3.98,-0.11808717092065724
3.982,-0.1506755094566226
3.984,-0.08505736626386462
3.986,-0.1400052319732496
3.988,-0.07255056525926738
3.99,-0.1231924838191438
3.992,-0.09137196444533718
3.994,-0.11169543142250585
3.996,-0.1134454218244052
3.998,-0.14638494214266617
4.0,-0.15918591593893816
4.002,-0.13494029043503927
4.0040000000000004,-0.14169036012110447
4.006,-0.17581247756076615
4.008,-0.10468478771407086
4.01,-0.15421210171291047
4.0120000000000005,-0.14549531556933057
4.014,-0.134513511917292
4.016,-0.1465788724402924
4.018,-0.12169468272626936
4.0200000000000005,-0.13948459421563428
4.022,-0.14328935629471196
4.024,-0.1291445599281894
4.026,-0.16387779679595674
4.0280000000000005,-0.16590403004538112
4.03,-0.15631089151581173
4.032,-0.15738293056637098
4.034,-0.08669534567548641
4.0360000000000005,-0.1448796552485831
4.038,-0.15394918426435944
4.04,-0.11998513646580686
4.042,-0.11664723559932899
4.0440000000000005,-0.12715154613613228
4.046,-0.1408001736122057
4.048,-0.14297570134384682
4.05,-0.13635426834248843
4.0520000000000005,-0.08944536064053338
4.054,-0.15790355882135515
4.056,-0.11654036034717835
4.058,-0.15510044027016634
4.0600000000000005,-0.08883460130647154
4.062,-0.16010226689643442
4.064,-0.10479537035188469
4.066,-0.11642248173453298
4.0680000000000005,-0.08763740143284769
4.07,-0.09588302127232863
4.072,-0.10512891900559304
4.074,-0.12031566725400489
4.0760000000000005,-0.1000760678191664
4.078,-0.08038418393269738
4.08,-0.0889693334411289
4.082,-0.07488955288777002
4.0840000000000005,-0.09094436546040281
4.086,-0.048809722533756386
4.088,-0.11692899255349687
4.09,-0.04664193775644078
4.0920000000000005,-0.11387799763104983
4.094,-0.020540134513401156
4.096,-0.10432101221128215
4.098,-0.07686400733482741
4.1,-0.022392193979540967
4.102,-0.03704358947354355
4.104,-0.035444482370511336
4.106,-0.05283779825950098
4.108,-0.037147428559532555
4.11,-0.019382940976724605
4.112,-0.053862320108264305
4.114,-0.01630624775529789
4.116,-0.027038808438532867
4.118,-0.03602896930721369
4.12,-0.020773542598303694
4.122,-0.0235165049065931
4.124,-0.0020378867092186864
4.126,0.006737938839036499
4.128,1.848435535553583e-05
4.13,-0.0361427350749501
4.132,-0.016938329372056235
4.134,0.02721210426326029
4.136,-0.0212015231003951
4.138,0.020453417701841413
4.14,-0.029806170547847285
4.142,-0.011383031083632603
4.144,-0.015547374664035336
4.146,0.011081660286348619
4.148,-0.0018357492998617685
4.15,0.009451175550553009
4.152,-0.0012187654358235076
4.154,0.009689739029470722
4.156,0.003998316298202895
4.158,0.017656345525838897
4.16,0.05029978782772436
4.162,0.035642521203262424
4.164,0.02802192299473325
4.166,0.030580620519801368
4.168,0.019642475308638073
4.17,-0.01859977560228562
4.172,-0.00010661301096084961
4.174,0.013514422101230904
4.176,0.0020561289261792582
4.178,0.03830115378447877
4.18,0.05560594398313492
4.182,-0.011419133520596689
4.184,0.017160672598900334
4.186,0.04486039330538536
4.188,0.023931407446195485
4.19,0.012419608959871221
4.192,0.0483841571707647
4.194,0.024062298382565205
4.196,0.04110376374643621
4.198,-0.009337483811308236
4.2,-0.002167412249417888
4.202,0.008542937498774123
4.204,0.003887568286215651
4.206,0.026993256908294478
4.208,-0.007856817913467807
4.21,0.020304217208853993
4.212,-0.030372991955019704
4.214,0.02869409724566078
4.216,-0.014382763653211355
4.218,0.07169549209636904
4.22,0.007591554413551133
4.222,0.027488112980276962
4.224,0.02936452165217033
4.226,0.04884787181701217
4.228,0.008256671861282787
4.23,0.0727136446359392
4.232,0.05818365337378423
4.234,0.025439276383003744
4.236,0.07960214426062717
4.238,-0.007882412682949182
4.24,0.031000267649368217
4.242,0.05503406036649869
4.244,0.03218316213681543
4.246,0.012189498177931055
4.248,0.058009894494425146
4.25,0.04311916082184058
4.252,0.012376982111111273
4.2540000000000004,0.03153337029802618
4.256,0.0021631270618172748
4.258,0.08029985236537585
4.26,0.016411687379219306
4.2620000000000005,0.05965850479009558
4.264,0.021205815654787033
4.266,-0.0013033986116173493
4.268,0.048226221086513706
4.2700000000000005,0.025657383217481115
4.272,0.05442865959206567
4.274,0.0392589510432038
4.276,0.0663729014101968
4.2780000000000005,0.024985930478619
4.28,-0.007574450398009547
4.282,0.027860511816270042
4.284,0.008305615598378339
4.2860000000000005,0.009123873892040134
4.288,0.04615283104760871
4.29,0.02308876312792381
4.292,0.022996393423474606
4.2940000000000005,0.03135870751417425
4.296,0.03998749697707153
4.298,0.07488370149071916
4.3,0.03813880156383645
4.3020000000000005,0.07537181202069262
4.304,0.01581429148506929
4.306,0.043717798707935095
4.308,0.08803156326065796
4.3100000000000005,0.027915273386158894
4.312,0.06633210531405452
4.314,0.0760941576428627
4.316,0.05737183174988886
4.3180000000000005,0.05951680236196779
4.32,0.017276533680313597
4.322,0.03456956127840634
4.324,0.056687580708449356
4.3260000000000005,0.11104183220899659
4.328,0.06770815395215674
4.33,0.04743217863648445
4.332,0.07718983380582353
4.3340000000000005,0.08929294267616882
4.336,0.08680316788880396
4.338,0.09782358130057162
4.34,0.07572792015431702
4.3420000000000005,0.09091471003914992
4.344,0.10299318885068881
4.346,0.12803722528099365
4.348,0.0988164005976182
4.3500000000000005,0.15314401398657654
4.352,0.1239199225947305
4.354,0.10530311528127118
4.356,0.12582233410821209
4.358,0.14893498442117498
4.36,0.1134039610550972
4.362,0.16144682076623795
4.364,0.11549546114948954
4.366,0.17932972269458244
4.368,0.1747657595051748
4.37,0.1581119795249867
4.372,0.13935419331458176
4.374,0.08755921147415405
4.376,0.1596501772897102
4.378,0.13710665130076685
4.38,0.15013380231456283
4.382,0.15003200339021575
4.384,0.12709629574369213
4.386,0.14990796137171913
4.388,0.14894450503134282
4.39,0.12921173308539474
4.392,0.13646550193992368
4.394,0.12601514273637687
4.396,0.14075308495388095
4.398,0.12926013349734009
4.4,0.15399354570183488
4.402,0.14587703133451002
4.404,0.15878178783160557
4.406,0.1219927595265985
4.408,0.14524268764701573
4.41,0.11353455586494518
4.412,0.14269036845490812
4.414,0.11034583772705851
4.416,0.1393662642778548
4.418,0.1342842951034239
4.42,0.11968878060631055
4.422,0.10275246915578888
4.424,0.09018933720843077
4.426,0.10391379312097124
4.428,0.08806163443634692
4.43,0.10494512944847986
4.432,0.08921721668675005
4.434,0.09218334790130496
4.436,0.02271052384875337
4.438,0.0734885726586225
4.44,0.09484583108960179
4.442,0.03283155415954611
4.444,0.08105216242618803
4.446,0.0568243434008306
4.448,0.03313711666379088
4.45,0.0152961597581725
4.452,-0.003756528957900969
4.454,0.01807097092816856
4.456,-0.0246415322287001
4.458,0.0042111373997924945
4.46,-0.033225783463115756
4.462,0.009121057881839104
4.464,-0.023248502303312837
4.466,-0.032049118191130675
4.468,-0.0077096220694219675
4.47,0.0013715280901653581
4.472,-0.01278435852334013
4.474,-0.026332185332120672
4.476,-0.019996009542735976
4.478,0.0014450762991723085
4.48,-0.0016710628287426102
4.482,0.01698531367748402
4.484,0.07043999378529
4.486,0.053724136601066695
4.488,0.1375819466520638
4.49,0.13013064667558283
4.492,0.1562128828263385
4.494,0.23473402149516046
4.496,0.2306156507046589
4.498,0.28602494666627687
4.5,0.3569854288867083
4.502,0.3860169830474114
4.5040000000000004,0.4482019741208124
4.506,0.4735133410207272
4.508,0.5167874979570001
4.51,0.5911718283482476
4.5120000000000005,0.6845553384840881
4.514,0.7117153469601074
4.516,0.705053967055642
4.518,0.8133753420647437
4.5200000000000005,0.8385894943908656
4.522,0.9091799342867353
4.524,0.9433431096389526
4.526,0.9631054432802503
4.5280000000000005,0.9896972903028504
4.53,0.9819278261692566
4.532,1.0145013317686358
4.534,0.9950734607068752
4.5360000000000005,1.0301674147509454
4.538,1.0313121043241535
4.54,1.0122144411233995
4.542,0.9947886589775584
4.5440000000000005,0.9760822794536482
4.546,0.9450738600408222
4.548,0.931218468228963
4.55,0.9271895370545318
4.5520000000000005,0.8917195484506784
4.554,0.8158472283211924
4.556,0.7581530544757745
4.558,0.7369803850645158
4.5600000000000005,0.7011871102403501
4.562,0.6707436919157438
4.564,0.584148390496463
4.566,0.5263739886731417
4.5680000000000005,0.5207042353580374
4.57,0.4683930969880352
4.572,0.4329809065248349
4.574,0.32912203501979775
4.5760000000000005,0.31175226148930113
4.578,0.30214643446783884
4.58,0.2332786641938333
4.582,0.20478342967705507
4.5840000000000005,0.19100970555325883
4.586,0.12261687905819599
4.588,0.14528506875204633
4.59,0.1093999974378429
4.5920000000000005,0.07664960728349354
4.594,0.092481670560778
4.596,0.04992723384507906
4.598,0.028838134597175512
4.6000000000000005,0.0281457013200416
4.602,0.024031815096915335
4.604,0.025141771143218077
4.606,0.031954859615209344
4.6080000000000005,0.05590074161592912
4.61,-0.016456501378625216
4.612,0.045002192429837155
4.614,0.028740530741986854
4.616,0.03090007178499051
4.618,0.02882110934187974
4.62,0.05474830406000178
4.622,0.03608402982668633
4.624,0.04732569095202041
4.626,0.04509832947171859
4.628,0.006137137365319019
4.63,0.03743331608092713
4.632,0.02525094525869994
4.634,0.0335477638791646
4.636,0.013902908762773537
4.638,0.044119730462051684
4.64,0.03940927003664958
4.642,0.02402696431812119
4.644,0.03611089038338665
4.646,0.05481449650926494
4.648,0.03642846685889357
4.65,0.061780323309886725
4.652,0.04513528613392106
4.654,0.054638780033262065
4.656,0.054563698643513764
4.658,0.027574631857683354
4.66,0.06626211890365866
4.662,0.03671300047875889
4.664,0.013063231982698126
4.666,0.05856944202195269
4.668,0.049544198055282734
4.67,0.06724974725885453
4.672,0.042433225499982644
4.674,0.07297706718341308
4.676,0.02705781488304656
4.678,0.03931004028703787
4.68,0.03568272788830166
4.682,0.02192942067609732
4.684,0.03834761721792167
4.686,0.04912796802661854
4.688,0.03902877039225231
4.69,0.025251946751994655
4.692,0.020137427815929185
4.694,0.05253464533681882
4.696,0.03558498914829296
4.698,0.037087658997500966
4.7,0.048797770878510734
4.702,0.013370838458452444
4.704,0.03203945893021243
4.706,0.02010324812706717
4.708,0.034089569437321623
4.71,0.022254273766073362
4.712,0.03160209673275543
4.714,0.020214198770989948
4.716,0.04649569757440607
4.718,0.045667148382082065
4.72,0.027818249127972927
4.722,0.0675532655044082
4.724,0.06847743104040944
4.726,0.05499321054940704
4.728,0.02053171333905204
4.73,0.051052889213586285
4.732,0.01815993279013535
4.734,0.0019613392317192344
4.736,0.03385584841085557
4.738,0.05343301360006111
4.74,0.0633769631901908
4.742,0.010547582393707046
4.744,0.030342737944392295
4.746,0.0381711445256528
4.748,0.041185282027077115
4.75,0.010573852323405679
4.752,0.023451125700758226
4.7540000000000004,0.0016919580541929925
4.756,0.013970047373377844
4.758,0.01757793328785293
4.76,0.01580686165580873
4.7620000000000005,-0.015910650575499237
4.764,-0.010118750596172434
4.766,0.038250209998949215
4.768,0.019301468813252835
4.7700000000000005,-0.0027234200516120487
4.772,0.010037679054846184
4.774,-0.004757489726420903
4.776,-0.010349517763618355
4.7780000000000005,0.017864399979867475
4.78,-0.002162217305209449
4.782,0.028269176559628933
4.784,0.01786132657815258
4.7860000000000005,0.0036077087615804804
4.788,-0.004168575740847721
4.79,-0.02256603016231198
4.792,-0.018822711471009307
4.7940000000000005,-0.04652471887711214
4.796,-0.012314828001519465
4.798,-0.018523143615040642
4.8,-0.01927302189270955
4.8020000000000005,-0.058942691334529604
4.804,-0.051544641949921435
4.806,-0.014237268284747064
4.808,-0.008274956729328063
4.8100000000000005,-0.08123283327696702
4.812,0.0019636334259078986
4.814,-0.03341918762129678
4.816,-0.017354771372600636
4.8180000000000005,-0.024392476954335218
4.82,-0.05247173826669285
4.822,-0.08461515865487977
4.824,-0.0566818208300795
4.8260000000000005,-0.039852456521362746
4.828,-0.06449131563559829
4.83,-0.06497044056573135
4.832,-0.0657447811118766
4.8340000000000005,-0.0803688129674543
4.836,-0.0683773313913972
4.838,-0.06927818472559
4.84,-0.08656350113686337
4.8420000000000005,-0.0990907966296428
4.844,-0.0926592156461015
4.846,-0.09300907442543047
4.848,-0.07700094142330552
4.8500000000000005,-0.09281078575249889
4.852,-0.05841451189032894
4.854,-0.07449358874404984
4.856,-0.12599239123265368
4.8580000000000005,-0.09828112415257273
4.86,-0.10911810352135856
4.862,-0.1116554292850399
4.864,-0.13121422245199083
4.866,-0.12151924669822259
4.868,-0.12213324335317363
4.87,-0.13141750464596047
4.872,-0.09892797277611343
4.874,-0.13600926540856745
4.876,-0.10213810042484901
4.878,-0.11005145403236016
4.88,-0.13790878288108807
4.882,-0.1278662282778313
4.884,-0.12447670064078246
4.886,-0.1652907914061728
4.888,-0.13838351614612054
4.89,-0.13402899309268232
4.892,-0.13788746770769464
4.894,-0.1539929359882951
4.896,-0.12146636406757313
4.898,-0.09325182924282019
4.9,-0.15419575518189083
4.902,-0.1486126555651785
4.904,-0.13417094904321963
4.906,-0.08661232548828789
4.908,-0.11842842289231324
4.91,-0.15638300114627438
4.912,-0.10325662507220222
4.914,-0.12589579818318963
4.916,-0.1375217597421057
4.918,-0.10286375820232457
4.92,-0.10513565127153089
4.922,-0.11538135066014446
4.924,-0.10889268553691861
4.926,-0.10748512866668618
4.928,-0.13113782177686956
4.93,-0.11332833321039174
4.932,-0.08308794064752004
4.934,-0.05747128942354273
4.936,-0.08714581292556643
4.938,-0.09065704321262281
4.94,-0.0683228271565717
4.942,-0.0864821662796623
4.944,-0.06999170328308724
4.946,-0.08382432966729633
4.948,-0.10327903255536723
4.95,-0.09793716271039812
4.952,-0.0763385619961207
4.954,-0.02598845741653373
4.956,-0.056250576600921344
4.958,-0.08130489947388707
4.96,-0.04022729923909006
4.962,-0.0424986778780692
4.964,-0.06297386971583552
4.966,-0.07390215942396872
4.968,-0.03911263730047795
4.97,-0.05665349976263037
4.972,-0.05397785340777367
4.974,-0.001221199842254203
4.976,-0.030841577902957856
4.978,-0.07910937460094655
4.98,-0.028410894272875374
4.982,-0.017033321127615682
4.984,-0.022569966296274058
4.986,-0.012635606653870854
4.988,-0.037084308936344325
4.99,-0.015291589378728144
4.992,-0.028281344336276087
4.994,-0.006873039793275318
4.996,0.01591971470596635
4.998,0.015467413440883426
5.0,-0.028142926857037648
5.002,-0.027315878361668218
5.0040000000000004,0.0020161494676840287
5.006,-0.02674355575129596
5.008,-0.004913095702034638
5.01,-0.01004183869586769
5.0120000000000005,-0.013468223213919614
5.014,-0.0313966800189304
5.016,-0.038840621958344354
5.018,0.012329542237346806
5.0200000000000005,-0.01459834874725995
5.022,-0.010831929686774199
5.024,-0.00856690982377158
5.026,-0.013078711396261777
5.0280000000000005,-0.01411165096227175
5.03,0.00914477445340844
5.032,-0.01487938059385649
5.034,-0.03674062408441962
5.0360000000000005,-0.0055907899589374265
5.038,-0.027576854527356066
5.04,-0.0034398023042863436
5.042,0.026853031394919562
5.0440000000000005,0.000356162454688419
5.046,-0.002697318884867537
5.048,0.0007778860785972491
5.05,-0.02791901198194201
5.0520000000000005,0.0030989705782361603
5.054,-0.030409245372703713
5.056,0.014973325866823322
5.058,0.012582198219497043
5.0600000000000005,-0.0033129749921537686
5.062,-0.017901532549343454
5.064,-0.022501789793639478
5.066,-0.003827186468720719
5.0680000000000005,-0.02033734814000652
5.07,-0.012920861053362563
5.072,-0.02107015351307461
5.074,-0.03424532722629395
5.0760000000000005,0.02816563387779754
5.078,-0.02235817143764398
5.08,-0.010573929367998764
5.082,-0.06098915679823558
5.0840000000000005,-0.019026096098033844
5.086,0.0014268243708583236
5.088,-0.035272427160039574
5.09,-0.00213157262565764
5.0920000000000005,-0.019370281244399448
5.094,-0.04266744458224117
5.096,0.0012160877256149573
5.098,0.007714901453045538
5.1000000000000005,-0.04021420460258289
5.102,-0.03640742181332891
5.104,-0.05028358389926434
5.106,0.012867011754586773
5.1080000000000005,-0.025442612559505466
5.11,-0.01410670197040423
5.112,-0.015811407894177808
5.114,0.013631786277889253
5.1160000000000005,-0.00936833943605885
5.118,-0.02353742598186092
5.12,-0.013740945191981468
5.122,0.02388094854193841
5.124,-0.04065477688326987
5.126,0.0059339856369247995
5.128,-0.009659282625689722
5.13,-0.021758945706267043
5.132,-0.0264688623148204
5.134,-0.026567744444632363
5.136,-0.023128434053208677
5.138,0.0002179459312573812
5.14,-0.03824822113622871
5.142,-0.055171874111355663
5.144,-0.022632736951255932
5.146,-0.030471752565086177
5.148,-0.007724993827737125
5.15,-0.029495270998882432
5.152,0.002072481046181676
5.154,0.0007299820440464042
5.156,-0.013144372509682412
5.158,-0.02589715490663277
5.16,-0.012507454010807927
5.162,-0.0571036124901782
5.164,-0.026075388357487544
5.166,0.001668229278680976
5.168,-0.015955405708754054
5.17,-0.03696779013918589
5.172,0.01531124775479387
5.174,0.009212393803441406
5.176,-0.013910639702866205
5.178,-0.0021155882343697682
5.18,0.003829724106862588
5.182,0.015746843620636546
5.184,-0.011488360010620317
5.186,0.027820222234089746
5.188,-0.008781237364260813
5.19,-0.023126200327828306
5.192,-0.0038435148814130946
5.194,0.0008577009633923549
5.196,0.007768530693007071
5.198,0.030139265473110494
5.2,0.033139096241280454
5.202,0.0037685234728977238
5.204,0.020736594505322524
5.206,0.0066591393658951975
5.208,0.013683774873132395
5.21,0.03344789744330197
5.212,0.006561461620353565
5.214,0.03248708763332141
5.216,0.027092260843911767
5.218,0.026496493209885966
5.22,0.03256517018425765
5.222,0.05280082229346071
5.224,0.05093192877550133
5.226,0.07300149257592348
5.228,0.01635921194947315
5.23,0.06473304216983372
5.232,0.04854509034426975
5.234,0.06634815844181653
5.236,0.04943116823387342
5.238,0.07453339767481129
5.24,0.03879967335494203
5.242,0.10121937188551013
5.244,0.04033808573486611
5.246,0.06433527173869404
5.248,0.10581350662074968
5.25,0.053868719189240535
5.252,0.025915807452721734
5.2540000000000004,0.06534882250572488
5.256,0.04630935851297109
5.258,0.05840735003103849
5.26,0.029435309713476826
5.2620000000000005,0.0626713105756567
5.264,0.02384539969362716
5.266,0.03001821170340592
5.268,0.04544943254841737
5.2700000000000005,0.05134223780741433
5.272,0.05187336018542257
5.274,0.013826715988890848
5.276,-0.02706749503007909
5.2780000000000005,0.04481517260938697
5.28,0.01815639422145828
5.282,0.04294965885601603
5.284,-0.03505512906328016
5.2860000000000005,-0.004101717290530674
5.288,0.016884390144082634
5.29,-0.03307901236034987
5.292,-0.049303419452165445
5.2940000000000005,-0.04977043661301032
5.296,-0.005007701142506187
5.298,0.0059101504963418525
5.3,-0.033068119122788266
5.3020000000000005,-0.019603549881706896
5.304,-0.03541992810458796
5.306,-0.05863211042550402
5.308,-0.06108833230636383
5.3100000000000005,-0.09598234918054904
5.312,-0.07836137645519017
5.314,-0.08989298216122837
5.316,-0.0875846365885697
5.3180000000000005,-0.09660730077725554
5.32,-0.10414520988301054
5.322,-0.13460777140146374
5.324,-0.11871752769935728
5.3260000000000005,-0.09644801200689715
5.328,-0.09006155380543879
5.33,-0.1611142073255258
5.332,-0.11862006776373207
5.3340000000000005,-0.1278033424593577
5.336,-0.10320253619570988
5.338,-0.08963277882034025
5.34,-0.0816272101615912
5.3420000000000005,-0.02599817188095997
5.344,4.151608934721551e-05
5.346,-0.018464714104360236
5.348,0.04569794422383469
5.3500000000000005,0.10724155701628052
5.352,0.12103241005635004
5.354,0.17536242762971155
5.356,0.21407986037221285
5.3580000000000005,0.29005998743189254
5.36,0.33483086901525644
5.362,0.34896344858022493
5.364,0.423409415761767
5.3660000000000005,0.47895421784476094
5.368,0.5249769328406196
5.37,0.6046080528919775
5.372,0.6193226954963716
5.3740000000000006,0.664133380561669
5.376,0.7167849363911525
5.378,0.768332229241899
5.38,0.8259031317028583
5.382,0.8558872654478706
5.384,0.8932706084019679
5.386,0.9213231216139242
5.388,0.9082647629690017
5.39,0.9327245719223834
5.392,0.9716510008370304
5.394,0.9447693600113944
5.396,0.9278645995472479
5.398,0.8896979043385883
5.4,0.9328320519548475
5.402,0.8729407361599422
5.404,0.844802899568265
5.406,0.8502449014643894
5.408,0.7969714110113891
5.41,0.7567921398810546
5.412,0.6861224266462058
5.414,0.6690726594346383
5.416,0.6281374024498709
5.418,0.5618215401539317
5.42,0.5159545431589038
5.422,0.4828948111283427
5.424,0.41654742805837885
5.426,0.38561717514412686
5.428,0.31781501500505077
5.43,0.2956032846464941
5.432,0.26505446503868396
5.434,0.19474114307905618
5.436,0.18275277094415504
5.438,0.14123152346748777
5.44,0.131612822529744
5.442,0.07204397816416465
5.444,0.005165515055719411
5.446,0.044456057585542136
5.448,0.021540809310816766
5.45,-0.036191838221915004
5.452,-0.008256232455145694
5.454,-0.03605276252397252
5.456,-0.07242262393001185
5.458,-0.039671657053921006
5.46,-0.05735729173342281
5.462,-0.08749907356985305
5.464,-0.04862914370270281
5.466,-0.017150068915294504
5.468,-0.08154600773398483
5.47,-0.06936155921266553
5.472,-0.050681692473342636
5.474,-0.08206063466948563
5.476,-0.08045038381343743
5.478,-0.0956812868688228
5.48,-0.049636672146335575
5.482,-0.08359839635237243
5.484,-0.09280161788776792
5.486,-0.08673709015348374
5.488,-0.06910799770638863
5.49,-0.09967190363450262
5.492,-0.025514082238725002
5.494,-0.07677690092564196
5.496,-0.04808860490024148
5.498,-0.05867869415028916
5.5,-0.07995298314628138
5.502,-0.07175478344623144
5.5040000000000004,-0.08266537432386602
5.506,-0.06948004947119668
5.508,-0.03472786357781823
5.51,-0.07891643022257053
5.5120000000000005,-0.043382488968177264
5.514,-0.04253827743989731
5.516,-0.10092599828409307
5.518,-0.08853538632974557
5.5200000000000005,-0.05596043378477113
5.522,-0.06154861033101736
5.524,-0.08743423451844846
5.526,-0.06615116482402741
5.5280000000000005,-0.08331867591661375
5.53,-0.050903481440257706
5.532,-0.040165996878049545
5.534,-0.06651517440709574
5.5360000000000005,-0.05820631157253361
5.538,-0.021693888096520203
5.54,-0.06981635279483446
5.542,-0.025871798763181672
5.5440000000000005,-0.03373063256542811
5.546,-0.08713250253947889
5.548,-0.058789068928041636
5.55,-0.03836056947431371
5.5520000000000005,-0.06997391008781903
5.554,-0.05592972074354968
5.556,-0.03976391954155906
5.558,-0.08430559503266455
5.5600000000000005,-0.025060389564261754
5.562,-0.036887057249131334
5.564,-0.05652720646433503
5.566,-0.0737654837644172
5.5680000000000005,-0.03729740655502724
5.57,-0.02554180181492238
5.572,-0.04431535839885422
5.574,-0.02917919841581491
5.5760000000000005,-0.06867443831382909
5.578,-0.05581178268178197
5.58,-0.022548436739577588
5.582,-0.036960585706450035
5.5840000000000005,-0.02562169676930681
5.586,-0.07817183812665987
5.588,-0.057880398635384946
5.59,-0.0471168602313784
5.5920000000000005,-0.006536266142717989
5.594,-0.04561407463718001
5.596,-0.07422267695525592
5.598,-0.09336965458245788
5.6000000000000005,-0.055692919254976755
5.602,-0.07273200463279487
5.604,-0.06646408498248599
5.606,-0.03835279023883587
5.6080000000000005,-0.05552921851077329
5.61,-0.060059247933942975
5.612,-0.06682402381715885
5.614,-0.027677088522155203
5.6160000000000005,-0.09636005763084836
5.618,-0.04755519366197183
5.62,-0.043252234269033005
5.622,-0.06651163725771754
5.6240000000000006,-0.09635484986713247
5.626,-0.04232250769889984
5.628,-0.05022489981027693
5.63,-0.09418049917284874
5.632,-0.08817747072900456
5.634,-0.0600020992193246
5.636,-0.09032018633085515
5.638,-0.0710896398460577
5.64,-0.09737582244855367
5.642,-0.04985317002437336
5.644,-0.07368170072830278
5.646,-0.10147801003925253
5.648,-0.08581287284618314
5.65,-0.04592325568070445
5.652,-0.13611463692375114
5.654,-0.10845240590968871
5.656,-0.06591276244097566
5.658,-0.07766495732059475
5.66,-0.058152076100942904
5.662,-0.10977279120243882
5.664,-0.09908518782869748
5.666,-0.07565982367618662
5.668,-0.09244548026239854
5.67,-0.12007802864695943
5.672,-0.10904228304399574
5.674,-0.11464513872841209
5.676,-0.11161029438819539
5.678,-0.12262316871310323
5.68,-0.08095031476740003
5.682,-0.11269641686293139
5.684,-0.14486847019005264
5.686,-0.1516515706380789
5.688,-0.16331810723716295
5.69,-0.1459761807894927
5.692,-0.11249081226575353
5.694,-0.16554026122182344
5.696,-0.1471846110658973
5.698,-0.13500955445255042
5.7,-0.1623691407500638
5.702,-0.1550522414820476
5.704,-0.15198221306205728
5.706,-0.1640215800220266
5.708,-0.14593607595026675
5.71,-0.15115531401704627
5.712,-0.16826673439930695
5.714,-0.1644046457503127
5.716,-0.16221770728388524
5.718,-0.16342985501915558
5.72,-0.2036928324378144
5.722,-0.2130564854030479
5.724,-0.17562569420142854
5.726,-0.16005294439740583
5.728,-0.177078178321273
5.73,-0.17641929305445392
5.732,-0.1926822222045429
5.734,-0.21413410748706155
5.736,-0.18491107357513548
5.738,-0.18490372875034594
5.74,-0.18962406921663108
5.742,-0.18668270849892715
5.744,-0.1802425930540263
5.746,-0.14013171359917137
5.748,-0.15985645402802132
5.75,-0.16935026387658
5.752,-0.19933149969333142
5.7540000000000004,-0.18730806544872772
5.756,-0.18527601468880625
5.758,-0.18728607199782366
5.76,-0.16313216355528645
5.7620000000000005,-0.13062543679417193
5.764,-0.12208791117929371
5.766,-0.1996290394798901
5.768,-0.1496141753971147
5.7700000000000005,-0.15743181855159508
5.772,-0.16813823080392284
5.774,-0.11072751596678988
5.776,-0.19935050488142775
5.7780000000000005,-0.1856204681569858
5.78,-0.11838182979876502
5.782,-0.1508678680178586
5.784,-0.13745893971023954
5.7860000000000005,-0.11168520239773773
5.788,-0.1321398758631368
5.79,-0.13038252694412886
5.792,-0.14343565399181318
5.7940000000000005,-0.1375956262794267
5.796,-0.10576982799702274
5.798,-0.11432676602525615
5.8,-0.08520826409813248
5.8020000000000005,-0.13134660860415426
5.804,-0.10749209340791333
5.806,-0.08292282165076609
5.808,-0.09644268182359403
5.8100000000000005,-0.09510135137190368
5.812,-0.09430220518172246
5.814,-0.1048813097858812
5.816,-0.12238360768605096
5.8180000000000005,-0.10226634443711294
5.82,-0.08232899432995289
5.822,-0.0912753524060308
5.824,-0.090554492266578
5.8260000000000005,-0.08355944437967092
5.828,-0.07881163613941011
5.83,-0.09509023033540348
5.832,-0.06206456971972171
5.8340000000000005,-0.06200285330313492
5.836,-0.07127687044398574
5.838,-0.06370876006746287
5.84,-0.08712768179172303
5.8420000000000005,-0.07348641974604732
5.844,-0.06963339956750725
5.846,-0.03135886770205394
5.848,-0.05664041634740684
5.8500000000000005,-0.048124308804607996
5.852,-0.06855156205157584
5.854,-0.017625525301412245
5.856,-0.06268488740483781
5.8580000000000005,-0.03554851891656262
5.86,-0.052296458874399696
5.862,-0.08305436803117341
5.864,-0.06344133060717963
5.8660000000000005,-0.045314699610227854
5.868,-0.04145747017216969
5.87,-0.05112596199637501
5.872,-0.0529794399918379
5.8740000000000006,-0.006675464736221047
5.876,-0.022688149963888942
5.878,-0.001097017610116123
5.88,0.010391998205765666
5.882000000000001,-0.032888777765346495
5.884,-0.023629374831311476
5.886,-0.050724273118078346
5.888,-0.01660256180283252
5.89,-0.05993017357178103
5.892,-0.03219617976695535
5.894,-0.023375993904754328
5.896,-0.04961752877648114
5.898,-0.023434492563736045
5.9,-0.007460098066894924
5.902,-0.0011090685942392806
5.904,-0.06110264923310686
5.906,0.009466709743446931
5.908,-0.028412581619236526
5.91,-0.03673141894840408
5.912,0.0073395491840430255
5.914,-0.050607187899877205
5.916,-0.008587444563705474
5.918,-0.03262518315788561
5.92,-0.01891577080826351
5.922,-0.012002201272161398
5.924,-0.0014544864836072606
5.926,-0.009261996275237591
5.928,-0.034541818688674585
5.93,-0.009457580535187806
5.932,-0.03345829861886839
5.934,-0.04206423455857408
5.936,-0.012440233934743982
5.938,0.0038883717998332017
5.94,-0.04816041893845264
5.942,-0.010262298324633663
5.944,0.015111352703652155
5.946,0.0022191201086065493
5.948,-0.04086732797529776
5.95,0.002127770160394149
5.952,-0.023152062563287657
5.954,-0.023627162098312046
5.956,-0.01607198958181373
5.958,0.008035730612752971
5.96,-0.05312858563210932
5.962,0.008032334369747238
5.964,-0.025299822235575756
5.966,-0.004416363805043796
5.968,0.02164127964887136
5.97,0.00892822389039902
5.972,-0.04690948785080468
5.974,0.004831239806669028
5.976,-0.02509920874009109
5.978,-0.029949122677243766
5.98,0.005433016092140011
5.982,-0.008432278819449059
5.984,-0.04772253904525168
5.986,-0.043120257027586484
5.988,0.0007402036343441359
5.99,0.027100474004263343
5.992,-0.028354545434079143
5.994,0.014725811947497468
5.996,-0.003538201970030048
5.998,0.003623553396293001
6.0,-0.005346419876718094
6.002,0.007559602571490525
6.0040000000000004,-0.01922940392996396
6.006,0.014905697152678874
6.008,0.002518873596625148
6.01,0.022028793668069303
6.0120000000000005,-0.0010645650727241392
6.014,0.017360479499508565
6.016,0.024638567475186602
6.018,0.061577693764521345
6.0200000000000005,-0.03390182009341036
6.022,-0.010096454164614613
6.024,0.023597699239814578
6.026,0.011073077486833772
6.0280000000000005,0.011807563019791781
6.03,0.025694018810558508
6.032,-0.008925331146022727
6.034,0.03772321900263752
6.0360000000000005,-0.0037719537501951853
6.038,0.015293970781333379
6.04,0.005077288500104436
6.042,0.03571885557423653
6.0440000000000005,0.05587710947544842
6.046,0.04495733912863263
6.048,0.019165251950387215
6.05,0.04913982280205575
6.0520000000000005,0.04665379984260541
6.054,0.029526040864517673
6.056,0.04173684133481519
6.058,0.0477162488440981
6.0600000000000005,0.09767169191802802
6.062,0.07566153558937466
6.064,0.08614994738961483
6.066,0.07556146462788577
6.0680000000000005,0.10470300764992047
6.07,0.08704203112165873
6.072,0.11595583889903353
6.074,0.08093014365930826
6.0760000000000005,0.0697661871150741
6.078,0.06272321351224495
6.08,0.09335591125524298
6.082,0.11223724262036054
6.0840000000000005,0.06894112166883032
6.086,0.11685227635615045
6.088,0.1512857304249665
6.09,0.10827490618178527
6.0920000000000005,0.08919861465590966
6.094,0.11814654892805826
6.096,0.1260840553480544
6.098,0.10501162532279101
6.1000000000000005,0.12082044557256699
6.102,0.10893285858224766
6.104,0.09438855164815349
6.106,0.12059011495602212
6.1080000000000005,0.08321504320749878
6.11,0.12991097735288126
6.112,0.13990170776908095
6.114,0.1124101622871551
6.1160000000000005,0.11347294183192763
6.118,0.11554015981849369
6.12,0.08772069257764294
6.122,0.08158282643105767
6.1240000000000006,0.10210166233016187
6.126,0.05612384887810263
6.128,0.08398235530163096
6.13,0.10623874223204152
6.132000000000001,0.06955252356624966
6.134,0.06122761109900211
6.136,0.07539694213816091
6.138,0.035699262992108974
6.140000000000001,0.038632835835438806
6.142,0.06861803670717423
6.144,0.06184672520384964
6.146,0.07674480897466257
6.148,0.056662164907426746
6.15,0.04177818496266693
6.152,0.03238745448055734
6.154,-0.003005955740225016
6.156,0.047756101749600835
6.158,0.03193991697519344
6.16,0.03739971204405609
6.162,-0.007363927561789134
6.164,0.030922506573938968
6.166,0.0034676365753062398
6.168,0.02585957432189541
6.17,-0.026332944221014384
6.172,-0.030319745644452372
6.174,-0.07904280487941909
6.176,-0.041826389425762035
6.178,-0.056094695608675346
6.18,-0.017704642663643015
6.182,-0.026257697746147446
6.184,-0.00892988907753274
6.186,-0.032121445270632897
6.188,-0.005391322653271358
6.19,-0.05296813808082667
6.192,-0.013138618613757647
6.194,-0.021036496508954092
6.196,0.023232157433727814
6.198,0.009611271131738389
6.2,0.04267814946613765
6.202,0.038898348770413364
6.204,0.10857158317404428
6.206,0.12206284388085768
6.208,0.19875659375291577
6.21,0.21836894856343544
6.212,0.2773629347102358
6.214,0.3382629179541432
6.216,0.362410976726651
6.218,0.4134704631821018
6.22,0.463955202335263
6.222,0.5372377282225693
6.224,0.5918785917227807
6.226,0.6204413627671815
6.228,0.6774599685616296
6.23,0.6994998969428617
6.232,0.7869346092406421
6.234,0.8410691366123004
6.236,0.8507459403085678
6.238,0.8826589209435302
6.24,0.9575197022165577
6.242,0.9766504232826703
6.244,0.9633850208374457
6.246,0.9933750681931133
6.248,1.0194049796376488
6.25,1.0503729757567424
6.252,1.0186117289314114
6.2540000000000004,1.0178098047295896
6.256,1.0011308026055192
6.258,1.0101537126484492
6.26,0.9581239493275368
6.2620000000000005,0.9353777699047447
6.264,0.8974985565562604
6.266,0.8138642572075874
6.268,0.82589967115825
6.2700000000000005,0.7727676230469642
6.272,0.7142765964499055
6.274,0.6887556064024218
6.276,0.6353769150263717
6.2780000000000005,0.603416348301008
6.28,0.5354019393025403
6.282,0.48350446409523606
6.284,0.4609224019486693
6.2860000000000005,0.4125769255709509
6.288,0.3439794612644379
6.29,0.3364484335919625
6.292,0.2805759991761466
6.2940000000000005,0.245571871162916
6.296,0.20787401924328353
6.298,0.20342340644400272
6.3,0.11912975861737912
6.3020000000000005,0.11701741507925648
6.304,0.14001501794752796
6.306,0.07478109185205496
6.308,0.06516663775663493
6.3100000000000005,0.037365869505123744
6.312,0.032530609888315236
6.314,0.03483494792791187
6.316,0.03453297705205245
6.3180000000000005,0.014713449063557768
6.32,0.022450676626170694
6.322,0.030258102472447077
6.324,0.020024030564912185
6.3260000000000005,0.010162158419281721
6.328,0.04328242051390675
6.33,0.0855040156689305
6.332,0.0839585985855755
6.3340000000000005,-0.00768762285432972
6.336,0.022692446823402074
6.338,0.0032576161426462035
6.34,0.031269512726728135
6.3420000000000005,0.038377640556877146
6.344,0.03659761704712547
6.346,0.04479257406225939
6.348,0.02755718918668671
6.3500000000000005,0.042168047377591854
6.352,0.03397480794896739
6.354,0.02630821337752262
6.356,0.06014311186339405
6.3580000000000005,0.0865477907550323
6.36,0.05802074257891921
6.362,0.05922346017329302
6.364,0.03693927290476414
6.3660000000000005,0.05387696280135484
6.368,0.04278085121193573
6.37,0.07809475473313625
6.372,0.07347154560122031
6.3740000000000006,0.02780913998217879
6.376,0.08218250725235424
6.378,0.02884780216288448
6.38,0.035581356033261055
6.382000000000001,0.03944981432295392
6.384,0.04235018932840554
6.386,0.03871942190533989
6.388,0.03538425956470461
6.390000000000001,0.06303163833353889
6.392,0.058770046302336267
6.394,0.029422410343276684
6.396,0.07050180903820828
6.398000000000001,0.03179223804639701
6.4,0.042345701140170805
6.402,0.05644036681517593
6.404,0.07782467977549005
6.406,0.07372865502102426
6.408,0.03452634289840125
6.41,0.009768172386361944
6.412,0.07622490555894376
6.414,0.02099365074905179
6.416,0.056042810464121275
6.418,0.07804682660675671
6.42,0.05530988085568959
6.422,0.005203846372150601
6.424,0.04051236705226565
6.426,0.07910168591853146
6.428,0.05156817840715332
6.43,0.08586573423929025
6.432,0.06253181917640586
6.434,0.05030447114853846
6.436,0.05753949728626579
6.438,0.046536734324204625
6.44,0.04529003242733891
6.442,0.05015641178292772
6.444,0.04807554366082289
6.446,0.07022373247485714
6.448,0.027664965353458193
6.45,0.06484422386572758
6.452,0.0197919851156833
6.454,0.06490488040689252
6.456,0.08157993409389731
6.458,0.04576790369844068
6.46,0.05536391958598964
6.462,0.07337669061087983
6.464,0.05385515188525181
6.466,0.03832126783384152
6.468,0.044319290774791846
6.47,0.0646916690805084
6.472,0.06911620110267175
6.474,0.06387780552839607
6.476,0.08744860955566833
6.478,0.04844398388221583
6.48,0.10343917587554025
6.482,0.0780563656811771
6.484,0.09056059840286043
6.486,0.07090212447094016
6.488,0.06498104655290639
6.49,0.0446281627774512
6.492,0.07668209609349974
6.494,0.06334971402228941
6.496,0.07494962568812878
6.498,0.07821934182764112
6.5,0.09798110272320054
6.502,0.10815505151816235
6.5040000000000004,0.10347122625881869
6.506,0.09727044361827324
6.508,0.10586928043997829
6.51,0.09543435912804073
6.5120000000000005,0.07697372124587881
6.514,0.09179153186107361
6.516,0.0916184170644502
6.518,0.1132656806362273
6.5200000000000005,0.1262187014310745
6.522,0.10948077407489393
6.524,0.11370656392841696
6.526,0.1355465620156015
6.5280000000000005,0.12433773626904374
6.53,0.13097482823745465
6.532,0.12562076963881255
6.534,0.10259304687572567
6.5360000000000005,0.16594957486799444
6.538,0.14482689763903644
6.54,0.12036287579056279
6.542,0.12618884190147278
6.5440000000000005,0.17020656637618556
6.546,0.10353318733510401
6.548,0.11274541280956976
6.55,0.14566130142534534
6.5520000000000005,0.12163202060710007
6.554,0.16699636700356846
6.556,0.16438523511463876
6.558,0.1476329991650311
6.5600000000000005,0.17834212891482976
6.562,0.16272415023742492
6.564,0.1630627295721774
6.566,0.1890330100528878
6.5680000000000005,0.18152054727444905
6.57,0.11684484953797243
6.572,0.17696207784432405
6.574,0.19630049883836884
6.5760000000000005,0.21087139686077194
6.578,0.22396142055378057
6.58,0.17941300029452514
6.582,0.21548514896689816
6.5840000000000005,0.20160904351377246
6.586,0.1907890492326712
6.588,0.18846190792103723
6.59,0.20027768043139677
6.5920000000000005,0.20742179496478697
6.594,0.16565611856219611
6.596,0.2085695135975662
6.598,0.21154408913525513
6.6000000000000005,0.1887279801396666
6.602,0.206626912027317
6.604,0.17757917973773546
6.606,0.2101156822179081
6.6080000000000005,0.2037922923461805
6.61,0.2388096232617513
6.612,0.19216955789838297
6.614,0.21448549587647087
6.6160000000000005,0.24905680197521798
6.618,0.20707045272806218
6.62,0.18716040986999657
6.622,0.15436067154187383
6.6240000000000006,0.19669463780431207
6.626,0.1755911879569841
6.628,0.1818962796958557
6.63,0.19579398283651567
6.632000000000001,0.16404161554863944
6.634,0.19242801096969062
6.636,0.14495776476204253
6.638,0.1597773737365307
6.640000000000001,0.13722616921108372
6.642,0.1372560273308127
6.644,0.1709018783674237
6.646,0.16164729279900086
6.648000000000001,0.1818820515243212
6.65,0.15122015177826015
6.652,0.16883104052144193
6.654,0.1577944153841513
6.656000000000001,0.13946981767437666
6.658,0.14826243809161463
6.66,0.1242172572233205
6.662,0.11041335261561643
6.664,0.13243361819071595
6.666,0.11289888298986148
6.668,0.11764908987805472
6.67,0.13814494291600887
6.672,0.1317770199861356
6.674,0.09191158614046813
6.676,0.14185380793720398
6.678,0.09867748618297228
6.68,0.08467750262909166
6.682,0.12298501301850054
6.684,0.07460162867650014
6.686,0.07637056878212248
6.688,0.08340284266523296
6.69,0.07960184607075407
6.692,0.08588522259280984
6.694,0.09638674501158709
6.696,0.10012869131004046
6.698,0.06098036020152751
6.7,0.09001954384328024
6.702,0.05715449615915887
6.704,0.0718464743360538
6.706,0.031326908049044186
6.708,0.06024488622924479
6.71,0.08235131865452489
6.712,0.06553351244988351
6.714,0.05435483375730939
6.716,0.04694570300268816
6.718,0.06748224117236451
6.72,0.035652661961636786
6.722,0.045031552333266986
6.724,0.07363060404675519
6.726,0.0626426503194919
6.728,0.03549653095035782
6.73,0.05810766929131763
6.732,0.044517748097052875
6.734,0.0730320779806477
6.736,0.04161115607740378
6.738,-0.012410210287647057
6.74,0.03992887787192743
6.742,0.04130953261492477
6.744,0.029207948417039768
6.746,0.04240385799908757
6.748,0.0364503628986857
6.75,0.060445699596033964
6.752,0.012970110503685265
6.7540000000000004,0.04822569003116348
6.756,0.03912617121387225
6.758,0.03481884572125869
6.76,0.01418648373384416
6.7620000000000005,0.042050755265155323
6.764,0.01109437731131915
6.766,0.031746813372176934
6.768,0.019269601846775567
6.7700000000000005,0.039982512045894106
6.772,0.0252109840758109
6.774,0.03966099044243974
6.776,0.03879020938796565
6.7780000000000005,-0.017663765061988412
6.78,0.006145234150898297
6.782,0.026263510818481224
6.784,0.020875483825418057
6.7860000000000005,0.05453176059771137
6.788,0.04080126959058361
6.79,0.02670779329166726
6.792,0.021234194014744936
6.7940000000000005,0.018095624340493867
6.796,0.04333610571692538
6.798,0.04281827528601837
6.8,-0.005573821245624847
6.8020000000000005,0.03326242997505493
6.804,0.030011142966011966
6.806,0.03868831424427693
6.808,0.02058073071073901
6.8100000000000005,0.06639689284504308
6.812,0.014330350318505799
6.814,0.041008771565940204
6.816,0.014635249427080202
6.8180000000000005,0.039640983146694245
6.82,0.016522864836882683
6.822,0.01797821797278059
6.824,0.014522373940274457
6.8260000000000005,0.02636878236744353
6.828,-0.003856308518437551
6.83,0.05112684279052866
6.832,0.030791699525830267
6.8340000000000005,0.030088309078804686
6.836,0.05458147072012071
6.838,0.03388762882047192
6.84,0.01829391560545438
6.8420000000000005,0.030069805383232534
6.844,0.010101420486996639
6.846,0.011683836599200715
6.848,0.039342231861569835
6.8500000000000005,0.00191541717763241
6.852,0.03215487224249679
6.854,0.045130065695552175
6.856,0.024282268598757782
6.8580000000000005,0.04360958964188848
6.86,0.030325995822596957
6.862,0.03873526599810256
6.864,0.05925868986267211
6.8660000000000005,0.0004270125375496268
6.868,0.019204414670620167
6.87,0.027592188418709404
6.872,-0.014754925414629243
6.8740000000000006,0.06500013574454253
6.876,0.04715696193874887
6.878,0.004904825606876776
6.88,0.049707454428826736
6.882000000000001,0.030503937329035724
6.884,0.005529794801481115
6.886,0.04276180873257858
6.888,0.023557922166011422
6.890000000000001,0.06244944008051845
6.892,0.05550430278922715
6.894,0.05927511037216414
6.896,0.01141422796302147
6.898000000000001,0.04717112734601553
6.9,0.061981234826449655
6.902,0.03443647036306616
6.904,0.051208374952054235
6.906000000000001,0.019046224585199792
6.908,-0.005845169354253513
6.91,0.08788949811256981
6.912,0.056707359380186215
6.914,0.07238704724433109
6.916,0.024768409217081278
6.918,0.08519318052310912
6.92,0.05700564473876654
6.922,0.14105981790658
6.924,0.08701510538842179
6.926,0.07625109446681268
6.928,0.06909405477950815
6.93,0.09119477919279176
6.932,0.08317910758329708
6.934,0.05001048801356779
6.936,0.08811940712158839
6.938,0.09731560648458794
6.94,0.09511657116382691
6.942,0.10598611152016278
6.944,0.15232490473663857
6.946,0.08765527233611851
6.948,0.10466823408848638
6.95,0.10264043715839559
6.952,0.11478765539425198
6.954,0.0952712456429581
6.956,0.07585409158287948
6.958,0.10106817266457845
6.96,0.08378165339838703
6.962,0.09368258356933541
6.964,0.11580127288836214
6.966,0.10626449662060848
6.968,0.08892723382590781
6.97,0.07532180270480636
6.972,0.06975447860781991
6.974,0.08431343453156995
6.976,0.0849672245927932
6.978,0.13076053343221844
6.98,0.0664014255716456
6.982,0.11500221417340317
6.984,0.10764104864765034
6.986,0.08082990426528994
6.988,0.07790455503979414
6.99,0.08669822240155649
6.992,0.037971191218068565
6.994,0.06720016698164633
6.996,0.03677021259664729
6.998,0.0010798947048041851
7.0,0.038318487940664996
7.002,0.05165888551575197
7.0040000000000004,0.027522173558918603
7.006,0.018227383746599206
7.008,0.05970345197195004
7.01,0.010953463369280316
7.0120000000000005,0.0027996660530067267
7.014,0.015748715409153687
7.016,-0.026062905434071613
7.018,0.009469699118323226
7.0200000000000005,-0.0562199406826861
7.022,-0.053576483792096646
7.024,-0.0437442044693333
7.026,-0.025506195572802922
7.0280000000000005,-0.052601047897302966
7.03,-0.06575143486259717
7.032,-0.06971463248954657
7.034,-0.08010364403415725
7.0360000000000005,-0.0907422548179679
7.038,-0.10632673678176213
7.04,-0.09767841557705026
7.042,-0.09145155687553602
7.0440000000000005,-0.0635031420352032
7.046,-0.07065685168954587
7.048,-0.07816927417856602
7.05,-0.056441594650687064
7.0520000000000005,-0.0455645826169689
7.054,-0.041193748623682996
7.056,-0.003860922876174242
7.058,0.0015333453171978567
7.0600000000000005,-0.012349004461428455
7.062,0.10036124203698897
7.064,0.07954627929913403
7.066,0.16173540134117287
7.0680000000000005,0.1908246885419805
7.07,0.2566481870922047
7.072,0.30064127398270507
7.074,0.3264279686003546
7.0760000000000005,0.4026824631590234
7.078,0.47105566490151307
7.08,0.5001108851523661
7.082,0.5402312960970284
7.0840000000000005,0.6567837564827069
7.086,0.6570622844436121
7.088,0.6895490647645928
7.09,0.7819117751656133
7.0920000000000005,0.8012661452805416
7.094,0.846186639082122
7.096,0.8481326012183649
7.098,0.8784752247200708
7.1000000000000005,0.9224486501005728
7.102,0.9542521206165369
7.104,0.941218400631246
7.106,0.9704788223756963
7.1080000000000005,0.9645637298793285
7.11,0.9701894603091618
7.112,0.9214072440514957
7.114,0.9448742707220563
7.1160000000000005,0.920173964095718
7.118,0.8171490782083255
7.12,0.8369995743727662
7.122,0.8016200305521795
7.1240000000000006,0.8108866373171697
7.126,0.770199012163453
7.128,0.6970485615411898
7.13,0.6889313557425507
7.132000000000001,0.6352341130999665
7.134,0.5543626374365167
7.136,0.5200602367340921
7.138,0.46264996563637595
7.140000000000001,0.4023780764054132
7.142,0.38936288449300577
7.144,0.30422720717626084
7.146,0.27170001647335984
7.148000000000001,0.24160308496228408
7.15,0.22646220282131954
7.152,0.15670711421622796
7.154,0.12236638057588321
7.156000000000001,0.11331495946414166
7.158,0.044636845820325816
7.16,0.07101413834474293
7.162,0.02082149754131324
7.164000000000001,0.009230869150182026
7.166,-0.039766049119649566
7.168,0.0005475738119100348
7.17,-0.024939961609588765
7.172,-0.08054880097935409
7.174,-0.030769537302758027
7.176,-0.08108580976508861
7.178,-0.09663121436012811
7.18,-0.057650427093679235
7.182,-0.049510507089060796
7.184,-0.050947005573651685
7.186,-0.07535167238694133
7.188,-0.04247768304421543
7.19,-0.04838345241097248
7.192,-0.015797292806393602
7.194,-0.024257074616804066
7.196,-0.04368375789270266
7.198,-0.042222071075416326
7.2,-0.040096954804504745
7.202,-0.037310376508669925
7.204,-0.04902943529846175
7.206,-0.05840976957153223
7.208,-0.0673032451127477
7.21,-0.03756449748178487
7.212,-0.06604854300830006
7.214,-0.03915130196153884
7.216,-0.04855599214829726
7.218,-0.01572820963308693
7.22,-0.027224417766531592
7.222,-0.02326008566846594
7.224,-0.052271563424807176
7.226,-0.051304767066045524
7.228,-0.04558903641353385
7.23,-0.041545340265727225
7.232,-0.05210336790068867
7.234,-0.03045683785096561
7.236,-0.04206609142651663
7.238,-0.01661473264784954
7.24,-0.044572260751053375
7.242,-0.038123563023889216
7.244,-0.03588314705151818
7.246,-0.039500647186833875
7.248,-0.05884871927165343
7.25,-0.05020392002222859
7.252,-0.03482368696293598
7.2540000000000004,-0.014915504644028061
7.256,-0.0829761993565734
7.258,-0.0337375509873179
7.26,-0.05947646586324177
7.2620000000000005,-0.044167258166136564
7.264,-0.023673154563053772
7.266,-0.0667294724994213
7.268,-0.07921604308583616
7.2700000000000005,-0.03174613480671614
7.272,-0.012488360211863296
7.274,-0.015061886934097504
7.276,-0.04315504469069219
7.2780000000000005,-0.07231006836709429
7.28,-0.024470621692191774
7.282,-0.05055344828266767
7.284,-0.051180463306263364
7.2860000000000005,-0.04293454698653107
7.288,-0.035989477090852214
7.29,-0.05426137810276626
7.292,-0.027756666966527736
7.2940000000000005,-0.03482200662306626
7.296,-0.05266733844089804
7.298,-0.03289179482941585
7.3,-0.05344919147898511
7.3020000000000005,-0.029944908418773907
7.304,-0.059120890844594515
7.306,-0.018357468342421072
7.308,-0.05086761314145953
7.3100000000000005,-0.0640549148960834
7.312,-0.041751384728461204
7.314,-0.04822159375868698
7.316,-0.0390463278169559
7.3180000000000005,-0.02915757585283319
7.32,-0.04306848881567317
7.322,-0.01781502604793178
7.324,-0.07882532824719646
7.3260000000000005,-0.053144631953681506
7.328,-0.02526447176994863
7.33,-0.01993862477285205
7.332,-0.04622042231564996
7.3340000000000005,-0.013572048814199565
7.336,-0.011628594117790962
7.338,-0.04569795153433816
7.34,-0.009313964706749545
7.3420000000000005,-0.01364115133105467
7.344,-0.006283969264329982
7.346,-0.015620767840107005
7.348,-0.020375898809783615
7.3500000000000005,0.010939181920329152
7.352,-0.04175314808009495
7.354,-0.01608318271912671
7.356,-0.010504004699264203
7.3580000000000005,0.014522186256246784
7.36,0.00411797820653766
7.362,-0.037481005522245994
7.364,0.0030158238134523827
7.3660000000000005,-0.024223282824278672
7.368,-0.01419563978500319
7.37,-0.009009101736485704
7.372,0.019502090683150015
7.3740000000000006,-0.0324100871258218
7.376,0.0043483180497309315
7.378,-0.011798902759676523
7.38,0.03610038013744637
7.382000000000001,0.005306749407556939
7.384,-0.02362459048311427
7.386,-0.004449102394931431
7.388,0.007284023208866189
7.390000000000001,0.03406694868839933
7.392,0.021618625087563972
7.394,0.05745932522236738
7.396,0.04224132132963256
7.398000000000001,0.03793837095949908
7.4,0.03006486369899084
7.402,0.06220799605790095
7.404,0.05807017341651507
7.406000000000001,0.04856231644455473
7.408,0.08752148428256265
7.41,0.03238094974709717
7.412,0.033183636142413805
7.414000000000001,0.08686402794518942
7.416,0.09050575777226709
7.418,0.11082847582217817
7.42,0.0848949355615499
7.422000000000001,0.07884401726991128
7.424,0.1130988003859091
7.426,0.052134528827285254
7.428,0.09019227306289655
7.43,0.07465281076463637
7.432,0.10042298111749014
7.434,0.09606171278445677
7.436,0.09540296799068562
7.438,0.09712641217661867
7.44,0.07824199275585256
7.442,0.08282190086603403
7.444,0.09953923069197516
7.446,0.10446025538092898
7.448,0.09460813113458388
7.45,0.12211346939113898
7.452,0.08364266380945867
7.454,0.11555978874611138
7.456,0.12698495080329003
7.458,0.11472170130555795
7.46,0.09876348320633792
7.462,0.0838253592832533
7.464,0.12193379180828001
7.466,0.0877038974485941
7.468,0.09758798552106948
7.47,0.11574387028145278
7.472,0.10058238318149648
7.474,0.12087344353424502
7.476,0.0814610356123867
7.478,0.11073302621454
7.48,0.0700939772686329
7.482,0.126521864494976
7.484,0.08808873594930405
7.486,0.010008104577435312
7.488,0.05156791297928333
7.49,0.05431432534931585
7.492,0.07479898321950597
7.494,0.07363854704547196
7.496,0.062222343221519136
7.498,0.057168589709111865
7.5,0.0615255457085551
7.502,0.03502242649989801
7.5040000000000004,0.038492624753818816
7.506,0.07742144704006987
7.508,0.0598750359609967
7.51,0.0718597527259782
7.5120000000000005,0.028356968917638753
7.514,0.0346222619486019
7.516,0.05477173272184371
7.518,0.02729095705347629
7.5200000000000005,0.025579908133986612
7.522,0.033705444129489524
7.524,0.03877953125379918
7.526,0.014463831600124544
7.5280000000000005,0.03014338484949982
7.53,0.047749427676321156
7.532,0.0012327694898126504
7.534,0.06523475235847873
7.5360000000000005,0.006172741936443925
7.538,0.014563053663937349
7.54,-0.006646687589202373
7.542,-0.00990035100117051
7.5440000000000005,-0.013650306822942652
7.546,0.004054144711169695
7.548,-0.04958488801899979
7.55,-0.017196766205280517
7.5520000000000005,-0.033891913853900925
7.554,-0.05150337184328451
7.556,0.018843485452206515
7.558,-0.013899540439858526
7.5600000000000005,-0.022622765236048486
7.562,-0.007414131235930491
7.564,-0.01432080000862896
7.566,-0.008040672757823369
7.5680000000000005,-0.03230319905993022
7.57,-0.048713310208369213
7.572,-0.020523556596834306
7.574,-0.02415992911579977
7.5760000000000005,-0.027665588041024165
7.578,-0.03962799500125555
7.58,-0.022373773993565972
7.582,-0.022036331362012038
7.5840000000000005,-0.042465806325267884
7.586,-0.019914811583652076
7.588,-0.04127255000667192
7.59,-0.030207748460000614
7.5920000000000005,-0.019359184998772518
7.594,-0.014193100546065035
7.596,-0.03806720126937487
7.598,-0.027423373140080146
7.6000000000000005,-0.04765958653154362
7.602,-0.0025379121190979275
7.604,-0.02650071681927099
7.606,-0.05650209735229981
7.6080000000000005,-0.023795831752529917
7.61,-0.052461076581988716
7.612,-0.06562171256713625
7.614,-0.06543391400752575
7.6160000000000005,-0.06459976683521071
7.618,-0.05023118713305283
7.62,-0.07605697482611426
7.622,-0.039240701627806365
7.6240000000000006,-0.014265268271982592
7.626,-0.032387883357397944
7.628,-0.08327621069697184
7.63,-0.024017916304133753
7.632000000000001,-0.03509051158349469
7.634,-0.03913629988114285
7.636,-0.04074849786470745
7.638,-0.021140599316804926
7.640000000000001,-0.017126180660575096
7.642,-0.039031944333628756
7.644,-0.03674223641900978
7.646,-0.038157841748284245
7.648000000000001,-0.018124174049305386
7.65,-0.08543544353277217
7.652,-0.024449358137581003
7.654,-0.038216386257368146
7.656000000000001,-0.02934544352738933
7.658,-0.07476265711747909
7.66,-0.01025430386930755
7.662,-0.06208478991783088
7.664000000000001,-0.03582081727285726
7.666,-0.04316707328809122
7.668,-0.07201429121881789
7.67,-0.06631283109542163
7.672000000000001,-0.021164456437569642
7.674,-0.04807814027633092
7.676,-0.046911109491272175
7.678,-0.043278205146116286
7.68,-0.05262644592227509
7.682,-0.0596453567595515
7.684,-0.014471146021706094
7.686,-0.02741510296126721
7.688,-0.03419357448776484
7.69,-0.04637354032368585
7.692,-0.04127023018458711
7.694,-0.021298917014216136
7.696,-0.0746366716210163
7.698,0.0009535976918138543
7.7,-0.05038182875500288
7.702,-0.002860697443045058
7.704,-0.0156511742662069
7.706,-0.04583079131603803
7.708,-0.03930458830939178
7.71,-0.0286096513446644
7.712,-0.01287501539288904
7.714,-0.0740992461599332
7.716,-0.05070064015798577
7.718,-0.016075888972568342
7.72,-0.07424270011625289
7.722,-0.03547358595617695
7.724,-0.027526753747708792
7.726,0.0024174480729224866
7.728,-0.07082911332942851
7.73,-0.013944856614998898
7.732,-0.03278621749281764
7.734,-0.026612816122047304
7.736,-0.027903669136743525
7.738,-0.038630220841391644
7.74,-0.02193232235907984
7.742,-0.027503438141180406
7.744,-0.013872374518532776
7.746,-0.008220500560076005
7.748,-0.014353894484178748
7.75,-0.0069789979344813055
7.752,-0.05689334115601297
7.7540000000000004,-0.05371775473052852
7.756,-0.0035808627616125133
7.758,0.009642656920587349
7.76,0.028024409945857347
7.7620000000000005,0.002257005327870633
7.764,-0.0256299076364273
7.766,0.03652233520971871
7.768,0.0407053515917116
7.7700000000000005,-0.029277679425451286
7.772,0.03819946044944042
7.774,-0.00118552545964129
7.776,0.03413253676409839
7.7780000000000005,0.017753225656521876
7.78,0.011418001696183129
7.782,0.02507227947925656
7.784,0.04833555353188757
7.7860000000000005,0.017776205872183475
7.788,0.029663549345820495
7.79,0.05677205939440217
7.792,0.05637322282559378
7.7940000000000005,0.04743142990785451
7.796,0.05516828699295938
7.798,0.11547955291564994
7.8,0.07514073541668506
7.8020000000000005,0.09385994315436395
7.804,0.045572651645251136
7.806,0.041346868230209596
7.808,0.06243680212262116
7.8100000000000005,0.056593125581698
7.812,0.04267482089898461
7.814,0.08505565053050987
7.816,0.053693198498455115
7.8180000000000005,0.06096629004305622
7.82,0.07694548574132996
7.822,0.049286279676599896
7.824,0.08978127673713232
7.8260000000000005,0.08482041614191597
7.828,0.07295499471676467
7.83,0.07950094347345371
7.832,0.08427081006464562
7.8340000000000005,0.06100559778083292
7.836,0.01915930972184761
7.838,0.07708399692856917
7.84,0.052648421935475954
7.8420000000000005,0.052252936303905526
7.844,0.062469402934833565
7.846,0.05283050250485013
7.848,0.01764740963810621
7.8500000000000005,0.03822150347057781
7.852,0.04262348303225107
7.854,0.009297414173794566
7.856,0.016027558701002986
7.8580000000000005,0.055546383385008405
7.86,0.011786693922732662
7.862,0.0048900998543318225
7.864,0.009059708991138962
7.8660000000000005,0.0010767550536771309
7.868,-0.006599592028187801
7.87,-0.0355187935598436
7.872,-0.02937322733751313
7.8740000000000006,0.0219819829495728
7.876,-0.05574204909285273
7.878,-0.04916283231166367
7.88,-0.04739935783364874
7.882000000000001,-0.046455715259241956
7.884,-0.05334082847755997
7.886,-0.05581682151600768
7.888,-0.09904344453652325
7.890000000000001,-0.09954216975114161
7.892,-0.07339511778300617
7.894,-0.07396351015948405
7.896,-0.08510063739699517
7.898000000000001,-0.06663133864016202
7.9,-0.10568269909039024
7.902,-0.054192760757009066
7.904,-0.07795104267510902
7.906000000000001,-0.04763105111579462
7.908,-0.05486244085776893
7.91,-0.0348194397789502
7.912,-0.009708429761059774
7.914000000000001,0.021691063735211524
7.916,0.028691358608990688
7.918,0.05958306829263727
7.92,0.07132575519241395
7.922000000000001,0.15079057007959606
7.924,0.16584413693407157
7.926,0.15721597661835116
7.928,0.2530203736534686
7.930000000000001,0.30933293602528233
7.932,0.3795285453745195
7.934,0.44488859477035486
7.936,0.4810957478180528
7.938,0.5505634361668151
7.94,0.603780005030915
7.942,0.6536324231181895
7.944,0.6917016838206059
7.946,0.7073322926372018
7.948,0.7443015430765123
7.95,0.8333801147107425
7.952,0.8318298338663889
7.954,0.8599020256520196
7.956,0.8786693330946336
7.958,0.9275685133398435
7.96,0.9443714062952953
7.962,0.9552099327166765
7.964,0.9613594360456545
7.966,0.986113256462694
7.968,0.9739355175949037
7.97,0.9755581314910665
7.972,0.9245792168685338
7.974,0.9000428799395316
7.976,0.9218611508384621
7.978,0.8447873978753506
7.98,0.8144797248296196
7.982,0.7668679143008736
7.984,0.7438041127095091
7.986,0.6873976399983214
7.988,0.6184774114670895
7.99,0.625497647847204
7.992,0.5601458590939504
7.994,0.5196997577230047
7.996,0.4546857748743919
7.998,0.40275569691546986
8.0,0.353492092099207
8.002,0.35535510016264393
8.004,0.30444716449119175
8.006,0.20401404581635255
8.008000000000001,0.21562906293748857
8.01,0.19259875919021557
8.012,0.14387347958767055
8.014,0.11843733123449482
8.016,0.11147847552316549
8.018,0.0813698193758956
8.02,0.04011847860183931
8.022,0.08167541591819136
8.024000000000001,0.03703742289372766
8.026,-0.01326744172521508
8.028,0.03551267683634465
8.03,-0.01217864392107992
8.032,0.0115232528219249
8.034,-0.005971200694842884
8.036,-0.003484429637167028
8.038,-0.022258174373011832
8.040000000000001,-0.025825296235146886
8.042,0.020144946493317974
8.044,-0.03368195305519707
8.046,0.005916402806933504
8.048,-0.010381203967366541
8.05,-0.04706714938203333
8.052,0.006925154190192158
8.054,0.002924794786810181
8.056000000000001,-0.01595432593976965
8.058,-0.005580331893073905
8.06,0.004933964712026529
8.062,0.0016354115506052366
8.064,0.0009592170827006988
8.066,0.025197031625340732
8.068,0.04555905264367554
8.07,0.014021284852704074
8.072000000000001,0.05359368826753104
8.074,-0.00617280990593353
8.076,-0.009890978950404325
8.078,-0.021070333624805343
8.08,0.032867005558992746
8.082,-0.017252475329263148
8.084,0.011956367774591473
8.086,0.003837220428471798
8.088000000000001,-0.019614542742997763
8.09,0.013362180980263337
8.092,0.06319988380865213
8.094,0.038614917529506416
8.096,0.04497839897814269
8.098,0.04367439279504036
8.1,0.008098190161183858
8.102,0.012180106445443295
8.104000000000001,0.03505211699135216
8.106,0.029654788081503125
8.108,0.038031775356121345
8.11,-0.014038247995614176
8.112,0.014658744164555074
8.114,0.03847886360787454
8.116,0.02795390123231556
8.118,0.008208586111563963
8.120000000000001,-0.000978914922408444
8.122,0.036548269335368706
8.124,0.015955534207319752
8.126,0.021558883851168324
8.128,0.002797795891031453
8.13,0.013528432624791321
8.132,0.0521196968218893
8.134,0.02947038328308017
8.136000000000001,0.006856497314348613
8.138,0.01013923538064164
8.14,0.01163589967115595
8.142,0.038290174766384584
8.144,0.0617719715687906
8.146,0.02858031432925327
8.148,0.011951340154917466
8.15,0.04549673339979192
8.152000000000001,0.021172571665052414
8.154,0.03690393492971353
8.156,0.019303830044076122
8.158,0.023797867638821656
8.16,0.03344821209798866
8.162,0.042767770677947924
8.164,0.05459788449047817
8.166,0.03489011056312884
8.168000000000001,0.009755894494558454
8.17,0.023829171907988438
8.172,0.017182096049057023
8.174,0.04440621561996091
8.176,0.013391049891293987
8.178,0.01721541181016311
8.18,0.03491904987738348
8.182,0.03627877076235901
8.184000000000001,0.010471326617157729
8.186,0.015091513702221403
8.188,0.048533837024959704
8.19,0.04815093419696663
8.192,0.04535848228936017
8.194,0.004703547413411002
8.196,0.03986963661385519
8.198,0.08846594064349361
