time,ecg
0.0,-0.002784065886582266
0.002,-0.006677635939180827
0.004,0.041262896842018205
0.006,0.009267681570370032
0.008,-0.012875570792529947
0.01,-0.021208389593280096
0.012,0.003585512776872671
0.014,-0.004348987224718294
0.016,0.011779407320079989
0.018000000000000002,-9.349801080546678e-05
0.02,0.008080802373856624
0.022,0.020596328402902618
0.024,-0.001566533901773753
0.026000000000000002,0.0016213736780071111
0.028,0.022011916411197145
0.03,0.022001310258423404
0.032,0.03101692021570682
0.034,0.0569949336248739
0.036000000000000004,0.03225331023788951
0.038,0.037689374286462074
0.04,0.030600787481829945
0.042,0.04205102517694283
0.044,0.0339298208065715
0.046,0.08274373420402757
0.048,0.03974692858496562
0.05,0.030801926531179954
0.052000000000000005,0.0667849655644053
0.054,0.031709634352258716
0.056,0.0650850998900053
0.058,0.08689473777602036
0.06,0.058199612939198696
0.062,0.06491135571927172
0.064,0.03374728431929081
0.066,0.05855172517946529
0.068,0.0895612411261812
0.07,0.03433662854914895
0.07200000000000001,0.034569193318602455
0.074,0.11753114868659978
0.076,0.11853795419375657
0.078,0.1048754153793803
0.08,0.06864481213762195
0.082,0.10928853323296651
0.084,0.1324172960976098
0.08600000000000001,0.1024371513105343
0.088,0.12065347059572071
0.09,0.08370442419783519
0.092,0.09696864007453632
0.094,0.1731711291166665
0.096,0.13008631139871402
0.098,0.1225215972916088
0.1,0.10924573812145907
0.10200000000000001,0.0946753434639147
0.10400000000000001,0.09673840186218435
0.106,0.10408904257309595
0.108,0.11777946502107947
0.11,0.11276218699638857
0.112,0.14297377445149648
0.114,0.12206022097293404
0.116,0.12627498379115001
0.11800000000000001,0.13374214270590717
0.12,0.10804427345221967
0.122,0.10511292303677906
0.124,0.09676182801775013
0.126,0.13186827940890314
0.128,0.10353540172099968
0.13,0.06967127971316565
0.132,0.04797313916906443
0.134,0.09176129233939234
0.136,0.06953212175690451
0.138,0.08262829936664268
0.14,0.0712535582717833
0.14200000000000002,0.03385522642372697
0.14400000000000002,0.052028658269072166
0.146,0.022897846864035603
0.148,0.043385863489722266
0.15,0.050604813725397546
0.152,0.023767385168411877
0.154,0.07271955732942127
0.156,0.013763995118930498
0.158,0.030583044282275675
0.16,0.02440911215390222
0.162,0.00349983735165736
0.164,0.003921235651343981
0.166,-0.007194829015035178
0.168,0.011348062222217244
0.17,-0.02093886514110402
0.17200000000000001,-0.004947497904424114
0.17400000000000002,-0.06583853228638141
0.176,-0.03874611288214723
0.178,-0.042107036001381846
0.18,-0.05429482352050348
0.182,-0.07851939858622327
0.184,-0.07726326450140474
0.186,-0.02861407066649911
0.188,-0.0709628233767642
0.19,-0.01750861955845586
0.192,-0.014134661253075664
0.194,0.030543572370606717
0.196,-0.007479689244780107
0.198,0.019192377918516516
0.2,0.036114358227789085
0.202,0.10003216567929105
0.20400000000000001,0.07098012930238164
0.20600000000000002,0.0886780735631128
0.20800000000000002,0.1310443222798255
0.21,0.21267352983132332
0.212,0.25520633239400004
0.214,0.3163074656674607
0.216,0.3807169927832154
0.218,0.44364324594758836
0.22,0.43694978360241815
0.222,0.5441505429451678
0.224,0.5762213635844805
0.226,0.6266514636239857
0.228,0.6958859732392148
0.23,0.7609112806939194
0.232,0.7508949694829865
0.234,0.8324052509850224
0.23600000000000002,0.8664519262149155
0.23800000000000002,0.9115769128794186
0.24,0.9399066869583939
0.242,0.9495715618088955
0.244,1.006165400386685
0.246,1.0166684404362532
0.248,1.033777795462988
0.25,1.019064792958512
0.252,1.0160476180882143
0.254,0.9768659163052805
0.256,0.9856875840795994
0.258,0.9575371281106358
0.26,0.9344941244034399
0.262,0.9233080648306639
0.264,0.9265433165066966
0.266,0.8582187847595444
0.268,0.7872693984124054
0.27,0.7944542698201397
0.272,0.714076407274898
0.274,0.7159824721751975
0.276,0.6169808633263756
0.278,0.5707472830078143
0.28,0.5181255809572786
0.28200000000000003,0.4790930999418935
0.28400000000000003,0.4410674263200871
0.28600000000000003,0.3882476720852261
0.28800000000000003,0.35761038790817645
0.29,0.30483221275141037
0.292,0.2900072142255969
0.294,0.2501530476614867
0.296,0.20849687473112813
0.298,0.20228783498485753
0.3,0.119431232657252
0.302,0.12705672942421448
0.304,0.09625809040856817
0.306,0.09745454493475728
0.308,0.08084590727915235
0.31,0.07523519075951224
0.312,0.06592568074702576
0.314,0.030772273805786135
0.316,0.019974333005587576
0.318,-0.006171808817959276
0.32,0.04529085178059412
0.322,0.03783996290167466
0.324,-0.024319140231813516
0.326,0.012816395145531002
0.328,-0.017359974587811237
0.33,0.025374290072886333
0.332,-0.020875672048340836
0.334,0.06196185381405672
0.336,0.03483400073008795
0.338,0.03870486022878357
0.34,0.04853738057079378
0.342,0.036468947904520765
0.34400000000000003,0.06165463431234923
0.34600000000000003,0.014040086739932879
0.34800000000000003,0.03261255912644038
0.35000000000000003,0.006342031926026751
0.352,0.03818521738812018
0.354,0.04230772006958675
0.356,0.06927716087377943
0.358,0.046071911736753395
0.36,0.04911977382569032
0.362,0.039965917334435504
0.364,0.044839424148213715
0.366,0.07785201745961959
0.368,0.07461630233117232
0.37,0.04805280759205392
0.372,0.04862740065373386
0.374,0.043773708734877084
0.376,0.015541953539646632
0.378,0.0681274234859446
0.38,0.05191116405849672
0.382,0.04571221220888474
0.384,0.02665620311001843
0.386,0.07476099134024919
0.388,0.039697824868815776
0.39,0.022489782161646526
0.392,0.031817246520803914
0.394,0.054998552508294676
0.396,0.05173510395294135
0.398,0.045178460988941536
0.4,0.019551725490402006
0.402,0.05917433163329488
0.404,0.04211164375030156
0.406,0.028430516301075803
0.40800000000000003,0.048688020715279834
0.41000000000000003,0.09772499641379793
0.41200000000000003,0.017790869877018337
0.41400000000000003,0.038483228626871854
0.41600000000000004,0.07897996375831431
0.418,0.04338246804920332
0.42,0.06531321506784524
0.422,0.0330366483161962
0.424,0.08882326225370991
0.426,0.05159725861187928
0.428,0.04924160820783337
0.43,0.046424365960052914
0.432,0.03325979576746253
0.434,0.04854161643675461
0.436,0.04143657001128225
0.438,0.06616948681169524
0.44,0.053934722136921284
0.442,0.094885853580439
0.444,0.0435510778546684
0.446,0.04877885554050308
0.448,0.04696376501512321
0.45,0.04249200243683246
0.452,0.10521904773724104
0.454,0.007572685976337301
0.456,0.029752678924931206
0.458,0.021276032045810835
0.46,0.02596394080770543
0.462,0.04929275340619553
0.464,0.04652538771923075
0.466,0.015268204952955736
0.468,0.04262170300726681
0.47000000000000003,0.017850086524037412
0.47200000000000003,0.039344592709132625
0.47400000000000003,0.02419368746166035
0.47600000000000003,0.026971830418423923
0.47800000000000004,0.048225568106785896
0.48,0.015081976301432841
0.482,0.010993143812989908
0.484,0.044269962405593846
0.486,0.04678579243904127
0.488,0.06576364133016088
0.49,0.009795493087063446
0.492,0.055400899548773745
0.494,0.04374467521447538
0.496,0.012472892197348835
0.498,0.04040688107386558
0.5,0.0473398385662278
0.502,0.04662050121134897
0.504,-0.025508056278245525
0.506,0.032207932290790095
0.508,0.03857948621696964
0.51,0.017520053539178695
0.512,0.019276810311886883
0.514,0.020416346560924357
0.516,-0.012467638731598604
0.518,-0.017120784041864366
0.52,-0.020317627564367884
0.522,-0.013091237635459177
0.524,-0.029769708584318665
0.526,-0.026633517803740125
0.528,-0.014675618215206528
0.53,-0.019934625675817642
0.532,-0.023169801968533354
0.534,-0.018487414559639516
0.536,-0.032695916828111446
0.538,-0.034328827002963094
0.54,-0.004193585053766144
0.542,-0.05714422315409863
0.544,-0.04168072323651243
0.546,-0.06036718148025245
0.548,-0.0710644010726237
0.55,-0.03167991823411696
0.552,-0.06447052501066847
0.554,-0.051312914813963224
0.556,-0.030682215975536054
0.558,-0.054356098527619585
0.56,-0.0748355184653262
0.562,-0.06311784697165285
0.5640000000000001,-0.05173206935924869
0.5660000000000001,-0.08735521761314995
0.5680000000000001,-0.07172015134022311
0.5700000000000001,-0.08892629625399574
0.5720000000000001,-0.08712970147322793
0.5740000000000001,-0.11753795790775619
0.5760000000000001,-0.05019194125268456
0.578,-0.1187374296296799
0.58,-0.10292869756281123
0.582,-0.16202754197566963
0.584,-0.08618052775509041
0.586,-0.09808732582634386
0.588,-0.09303200019893898
0.59,-0.09882026318189051
0.592,-0.1056252928276747
0.594,-0.12723917563973586
0.596,-0.10773335868347256
0.598,-0.10718073235243647
0.6,-0.12706657673985228
0.602,-0.07385984427182143
0.604,-0.0957308191140101
0.606,-0.11086496620663723
0.608,-0.09078062968126338
0.61,-0.09936446852050376
0.612,-0.07645935544874205
0.614,-0.09019377574073809
0.616,-0.07519387836375856
0.618,-0.10598837625805517
0.62,-0.0770618446129595
0.622,-0.09265775575561205
0.624,-0.09966857700088283
0.626,-0.1117521644942934
0.628,-0.09368888783189179
0.63,-0.0884296521999826
0.632,-0.08253592364967363
0.634,-0.09044442589567388
0.636,-0.07582028427268397
0.638,-0.08829395509072366
0.64,-0.07611091646780209
0.642,-0.05759198633979474
0.644,-0.06635499046862883
0.646,-0.03443839928718272
0.648,-0.08315564360550555
0.65,-0.05828618926630548
0.652,-0.05648706236286379
0.654,-0.032359509120354416
0.656,-0.02634390474879955
0.658,-0.06208629285003352
0.66,-0.04632231323312018
0.662,-0.00840235389924944
0.664,-0.006048541688370032
0.666,-0.03281369218455411
0.668,-0.02839335848806329
0.67,-0.026683180315463982
0.672,-0.01054570048612926
0.674,-0.025502712113862652
0.676,0.007219136004533819
0.678,-0.048645183956633926
0.68,-0.002254709954240583
0.682,0.017827852018558354
0.684,-0.007861526382008294
0.686,-0.003329067711759559
0.6880000000000001,-0.019475468166524547
0.6900000000000001,-0.011598056323326347
0.6920000000000001,0.009199187770305157
0.6940000000000001,-0.013966768081885732
0.6960000000000001,0.015346031960716454
0.6980000000000001,-0.003911370124726487
0.7000000000000001,-0.03262035020662651
0.7020000000000001,0.026329182631829973
0.704,0.031604094394348886
0.706,0.0370731904661169
0.708,0.017247654707454627
0.71,0.05331270407092701
0.712,0.02377357681728715
0.714,0.033899268516676476
0.716,0.03192720578885043
0.718,0.0423689290570526
0.72,0.023932231231839116
0.722,-0.011309127526943444
0.724,0.0013683160211043505
0.726,0.04939797135160191
0.728,0.028639854150213265
0.73,0.029816830800005405
0.732,-0.005251530260934839
0.734,0.0481086525638489
0.736,0.006435061301585287
0.738,0.05311630909537325
0.74,0.026717675983571634
0.742,0.022517433396389
0.744,0.026902080047936816
0.746,-0.0033325704278822444
0.748,0.029498292351285697
0.75,0.04350198206312972
0.752,0.05233415959370186
0.754,0.02308068108161117
0.756,0.030223151247717604
0.758,0.05259068794849192
0.76,-0.002196016783143491
0.762,0.053320326906163444
0.764,0.05333737980995043
0.766,0.015958490737000113
0.768,0.015377897478942132
0.77,0.038293791068541846
0.772,0.022866393053183543
0.774,0.008390028800979533
0.776,0.03616866416244931
0.778,0.025414256078996857
0.78,0.03890190228038471
0.782,-0.0029320736208099957
0.784,0.02604693823366057
0.786,0.010699441663220519
0.788,0.016432497539689134
0.79,0.04022894762505564
0.792,0.05281465926212671
0.794,0.04051017026910561
0.796,0.020992714073809416
0.798,0.0818231749480931
0.8,0.04768881018387054
0.802,0.03891422273202369
0.804,0.021529306921299233
0.806,0.01670367464688484
0.808,-0.010868339726896629
0.81,0.03912149260973399
0.812,0.04792827414077369
0.8140000000000001,0.0192962758595098
0.8160000000000001,0.01837675804701828
0.8180000000000001,0.010302363805044307
0.8200000000000001,0.009509505522253957
0.8220000000000001,0.03792156118409433
0.8240000000000001,0.03513382684064824
0.8260000000000001,0.023204295937096706
0.8280000000000001,0.06104938142200703
0.8300000000000001,0.03581035007632636
0.8320000000000001,0.014876465125302241
0.834,0.004642440364658555
0.836,0.05088815266180951
0.838,0.03324321601270804
0.84,-0.00047190682668496085
0.842,0.06325603453816367
0.844,-0.01259554345190529
0.846,0.010378849388497364
0.848,0.028782076516546327
0.85,0.005464939044694119
0.852,0.022283947262249405
0.854,0.00012578597680590597
0.856,0.01847779440851661
0.858,0.03896423920936161
0.86,0.057145581800464036
0.862,0.014110492885133722
0.864,0.0057124270648979195
0.866,0.03754864696991953
0.868,0.03488222408279371
0.87,0.03489913620032731
0.872,0.033285079820119946
0.874,0.015154204299523445
0.876,0.0436237786611353
0.878,0.0073877585677342775
0.88,0.03633787666037711
0.882,0.024212967533159963
0.884,0.05533934795546187
0.886,0.041763861903439684
0.888,0.02610753007234029
0.89,0.041591622470498524
0.892,0.009401237985737824
0.894,0.02499990797036175
0.896,0.05087842212494404
0.898,0.00945160232249695
0.9,0.062294396771714916
0.902,0.04401565732827342
0.904,0.018034437506169683
0.906,0.03437272811001404
0.908,0.05614347837899864
0.91,0.07210304915112727
0.912,0.06300631572780141
0.914,0.057120700561726474
0.916,0.0362697212744568
0.918,0.08271913900443102
0.92,0.07086111416566727
0.922,0.09129261972383836
0.924,0.08369930698621952
0.926,0.09550781206500623
0.928,0.06885426586080265
0.93,0.08470935950996741
0.932,0.10262944505490722
0.934,0.09212245673817575
0.936,0.1628237034749373
0.9380000000000001,0.06902041404232342
0.9400000000000001,0.1222257409238296
0.9420000000000001,0.10332511674926136
0.9440000000000001,0.05376968763510598
0.9460000000000001,0.09333446825660427
0.9480000000000001,0.11768422925155933
0.9500000000000001,0.10001994981663193
0.9520000000000001,0.07460301374253667
0.9540000000000001,0.0987905039468666
0.9560000000000001,0.10821348299361602
0.9580000000000001,0.08780150386478014
0.96,0.12387225645144481
0.962,0.10303016153357697
0.964,0.13164308583031606
0.966,0.08093906539056535
0.968,0.07439897213231611
0.97,0.12934318964155614
0.972,0.0883568683973358
0.974,0.056465640315739404
0.976,0.061444678816435144
0.978,0.1188202362837211
0.98,0.08932052206973043
0.982,0.07083935238943452
0.984,0.07931221844861659
0.986,0.06068837568463398
0.988,0.03456252279866165
0.99,0.07704304781137336
0.992,0.011157040170245408
0.994,0.05714289874072403
0.996,0.06400456992962632
0.998,0.05767087520679262
1.0,0.001399633169838585
1.002,0.04502336591997189
1.004,0.03599276926660737
1.006,0.029755995691175884
1.008,-0.012534409475483881
1.01,-0.014699632956916377
1.012,0.029078774516620866
1.014,-0.0027453075679793595
1.016,-0.0013343952537207947
1.018,0.02925195079965227
1.02,-0.019243515944541566
1.022,0.007529037802971074
1.024,-0.05789500947961394
1.026,-0.04120767545597984
1.028,-0.045346929352035735
1.03,-0.06312497081602589
1.032,-0.04562951330221871
1.034,-0.07122549212925851
1.036,-0.0845441388061119
1.038,-0.09854254345488953
1.04,-0.07447108379674487
1.042,-0.08669269898019523
1.044,-0.04729692560461661
1.046,-0.08062279743057889
1.048,-0.057304501255621955
1.05,-0.07577909165518967
1.052,-0.03536408809458988
1.054,-0.03210502352779147
1.056,-0.018645160685649753
1.058,0.042706691317721424
1.06,0.05023886623515037
1.062,0.05977571353665836
1.064,0.14564435530532036
1.066,0.1455796226274594
1.068,0.21437087756546272
1.07,0.24919043354934894
1.072,0.2720911220034138
1.074,0.31344360229878515
1.076,0.4034015912806175
1.078,0.43422668326670993
1.08,0.48962176892012554
1.082,0.5421901680741193
1.084,0.6188319674848732
1.086,0.6605932164963113
1.088,0.7168966156719421
1.09,0.7468173481695145
1.092,0.8252620859050843
1.094,0.8409687998697574
1.096,0.8820572730552291
1.098,0.8902671630990634
1.1,0.922845882232802
1.102,0.9376707452793259
1.104,0.9341195304685581
1.106,0.9538273894099805
1.108,0.9358118091255992
1.11,0.961177676971306
1.112,0.9297317717449978
1.114,0.8915886453982951
1.116,0.9245855294598143
1.118,0.8899660106676612
1.12,0.8674066622273001
1.122,0.7993093855684485
1.124,0.770806149663386
1.1260000000000001,0.7541994009360042
1.1280000000000001,0.7089678814761418
1.1300000000000001,0.6691007292976104
1.1320000000000001,0.6178694590545977
1.1340000000000001,0.5875261531363678
1.1360000000000001,0.5082028544540554
1.1380000000000001,0.47739481428153385
1.1400000000000001,0.4185606766297778
1.1420000000000001,0.3914490292776378
1.1440000000000001,0.3338204687338185
1.1460000000000001,0.31694435064158283
1.1480000000000001,0.19380220977883586
1.1500000000000001,0.19000829343316472
1.1520000000000001,0.1287861871394366
1.154,0.11594282948134298
1.156,0.10677362088063791
1.158,0.0779218153992835
1.16,0.07588682933054336
1.162,0.032342211103374915
1.164,0.01143394786756512
1.166,-0.03697360636064302
1.168,-0.008405214530060946
1.17,-0.03884274120286006
1.172,-0.03126237985844111
1.174,-0.04654498171603439
1.176,-0.043714664719092966
1.178,-0.058468754241203
1.18,-0.0727584368153257
1.182,-0.023857430254773365
1.184,-0.08008568991545774
1.186,-0.040020809709186034
1.188,-0.0418602227609461
1.19,-0.018281023074002003
1.192,-0.0653348770973629
1.194,-0.06943892706117236
1.196,-0.03194617330698879
1.198,-0.04910769307837957
1.2,-0.025243441525544395
1.202,-0.036488778708769445
1.204,-0.029878614272026364
1.206,-0.05270586019079519
1.208,-0.058451720000193316
1.21,-0.0074647159223303235
1.212,-0.040460526997315206
1.214,-0.011482006985891986
1.216,-0.05518486177743176
1.218,-0.05351209965144211
1.22,-0.044713749882835455
1.222,-0.07428075930884648
1.224,-0.018412207029858244
1.226,-0.046787198451249984
1.228,0.002799856993528816
1.23,-0.039317750233686714
1.232,0.0166679351746359
1.234,-0.01458041455223768
1.236,-0.04327134828617295
1.238,-0.04789011954736157
1.24,-0.051624714573424456
1.242,-0.025693345198397326
1.244,-0.03615012045777206
1.246,-0.03721657506555665
1.248,-0.10071476866163835
1.25,-0.031768659769870033
1.252,-0.10292636899756213
1.254,-0.042640510065068485
1.256,-0.02815581293108751
1.258,-0.016677473194674174
1.26,-0.024285775259018316
1.262,-0.04409662556855454
1.264,-0.013265913089195558
1.266,-0.01814039891437164
1.268,-0.03155903715655644
1.27,-0.029831770483070796
1.272,-0.045627589187384354
1.274,-0.019069077555664168
1.276,-0.019294757714199237
1.278,-0.0067683877151814755
1.28,-0.03595106591588056
1.282,-0.038947437595231574
1.284,-0.04822333695096763
1.286,-0.044471474434479935
1.288,-0.025937787867112476
1.29,-0.0580348203390881
1.292,-0.034473857012394526
1.294,0.017653345385326306
1.296,-0.051174247265661194
1.298,-0.08330167488738105
1.3,-0.01187179460248247
1.302,-0.048623879119860706
1.304,-0.028644763012229808
1.306,-0.0131996447856714
1.308,-0.054337966311704615
1.31,-0.09149540289459858
1.312,-0.03204096342088181
1.314,-0.058769548925424034
1.316,-0.05777518750647975
1.318,-0.07083829964840004
1.32,-0.06377204213254165
1.322,-0.05933699120398158
1.324,-0.034247377020620584
1.326,-0.052124540524945404
1.328,-0.05607468143172635
1.33,-0.06512308049750107
1.332,-0.0005209262987444108
1.334,-0.08328540512160112
1.336,-0.06638124611324002
1.338,-0.05626325761809391
1.34,-0.05471826459249421
1.342,-0.050461609196262816
1.344,-0.060593114625969315
1.346,-0.06422737570713191
1.348,-0.06450392612338449
1.35,-0.05651028837886278
1.352,-0.07222594506301205
1.354,-0.04193255946715277
1.356,-0.09568892786163177
1.358,-0.0757236101325503
1.36,-0.10559719993534054
1.362,-0.08621708570323905
1.364,-0.07787116857952969
1.366,-0.08981333948988622
1.368,-0.10509893155340883
1.37,-0.11590731519226594
1.372,-0.046359675133833544
1.374,-0.07350626146217268
1.3760000000000001,-0.10192890613922082
1.3780000000000001,-0.07915686021964982
1.3800000000000001,-0.1236973215170307
1.3820000000000001,-0.11243525950516961
1.3840000000000001,-0.12403053846769616
1.3860000000000001,-0.0898122652274002
1.3880000000000001,-0.10350544353985772
1.3900000000000001,-0.1071655761108164
1.3920000000000001,-0.12214446481189037
1.3940000000000001,-0.1323435696538078
1.3960000000000001,-0.12377373401551277
1.3980000000000001,-0.1358206859659343
1.4000000000000001,-0.15922697752946174
1.4020000000000001,-0.1131244594901094
1.4040000000000001,-0.15977976553822865
1.4060000000000001,-0.14762370204562905
1.408,-0.17262054645348587
1.41,-0.1747654455975236
1.412,-0.14046144545636785
1.414,-0.16080881840314953
1.416,-0.1668540017701151
1.418,-0.18625872226749193
1.42,-0.16743849671134117
1.422,-0.15589183449329075
1.424,-0.1839460226238103
1.426,-0.183543845121992
1.428,-0.22606366452303514
1.43,-0.1475851129419256
1.432,-0.17402053796813027
1.434,-0.14721733118689526
1.436,-0.1885442087508636
1.438,-0.17835351385866455
1.44,-0.18882893592914454
1.442,-0.23514808547022972
1.444,-0.19233483409698673
1.446,-0.17431919891881184
1.448,-0.19360907706848784
1.45,-0.20786165913901644
1.452,-0.19993810124363054
1.454,-0.21064399328493794
1.456,-0.24232060229319544
1.458,-0.19891562028733656
1.46,-0.20105959248554678
1.462,-0.16758411534452364
1.464,-0.16071276131126144
1.466,-0.20684129059178663
1.468,-0.21152991906481813
1.47,-0.22392013013163767
1.472,-0.20250613279687799
1.474,-0.19667484400700833
1.476,-0.16310663018696103
1.478,-0.18083723818240943
1.48,-0.1783559927617046
1.482,-0.21217138585362727
1.484,-0.17704684841698154
1.486,-0.19886417949293517
1.488,-0.18123951079564032
1.49,-0.18572609574009824
1.492,-0.18234614245894354
1.494,-0.18717060356810222
1.496,-0.2091019559866781
1.498,-0.15808131990188873
1.5,-0.14281224482911806
1.502,-0.1410670755148979
1.504,-0.17442127111921024
1.506,-0.10438258563198932
1.508,-0.16023050759896162
1.51,-0.15968809306176243
1.512,-0.11996886911045271
1.514,-0.14931504059803707
1.516,-0.18043725973315344
1.518,-0.18140653249808475
1.52,-0.12265427104288526
1.522,-0.12700432373913273
1.524,-0.1564282176044164
1.526,-0.10936460374001672
1.528,-0.12958105193099298
1.53,-0.11740011707989956
1.532,-0.11264503632907324
1.534,-0.10155360015534384
1.536,-0.07827608949745839
1.538,-0.10777225251135472
1.54,-0.05007553542829475
1.542,-0.10401976549403201
1.544,-0.08734605289756116
1.546,-0.0784254418056842
1.548,-0.08959502181949808
1.55,-0.07608942414940537
1.552,-0.0730453453833419
1.554,-0.11759264750829915
1.556,-0.08191934136018666
1.558,-0.07735547699871072
1.56,-0.046433015865622686
1.562,-0.09113816471121043
1.564,-0.08152931200611206
1.566,-0.04838209690409129
1.568,-0.06153163097720736
1.57,-0.07732969531288704
1.572,-0.07476500753433327
1.574,-0.06097777583632062
1.576,-0.07553913853635877
1.578,-0.050209184205486826
1.58,-0.04392780952769912
1.582,-0.05118530944750478
1.584,-0.06185477709490837
1.586,-0.05296572672535792
1.588,-0.07755543810230354
1.59,-0.07647183610739697
1.592,-0.05299491775003472
1.594,-0.06160925269795756
1.596,-0.009044152278734363
1.598,-0.03936964786962346
1.6,-0.048292553145389445
1.602,-0.04659166498715943
1.604,-0.04557709948765446
1.606,-0.032377734744034534
1.608,-0.05949318225337196
1.61,-0.029588583111399787
1.612,-0.050401287424881265
1.614,-0.055121562356480705
1.616,-0.042690443018215056
1.618,-0.04417310197502925
1.62,-0.034619949021609316
1.622,-0.023484892664738893
1.624,-0.05336289278207475
1.6260000000000001,-0.038631830501321275
1.6280000000000001,-0.057999634443923795
1.6300000000000001,-0.06084833051896886
1.6320000000000001,-0.017925511095019744
1.6340000000000001,-0.040697991148210544
1.6360000000000001,-0.0823966225445311
1.6380000000000001,-0.04249306807793
1.6400000000000001,-0.037201644917784354
1.6420000000000001,-0.025560580087593373
1.6440000000000001,-0.05959723009782523
1.6460000000000001,-0.06385569792155744
1.6480000000000001,-0.04480971616930429
1.6500000000000001,-0.023521484552947117
1.6520000000000001,-0.06961683578102408
1.6540000000000001,-0.05198036890521725
1.6560000000000001,-0.046696889178496216
1.6580000000000001,-0.04810960184894721
1.6600000000000001,-0.07068969775487106
1.6620000000000001,-0.012413743910626497
1.6640000000000001,-0.06447915734031376
1.666,-0.03567477260573226
1.668,-0.07421061375378643
1.67,-0.0707526397154584
1.672,-0.03306810028505254
1.674,-0.01138100640491047
1.676,-0.009908588087671078
1.678,-0.07748629822562277
1.68,-0.04197390285968577
1.682,-0.009003444707936124
1.684,-0.06902649763472975
1.686,-0.057009921669251014
1.688,-0.01790408697452378
1.69,-0.0358822959818553
1.692,-0.027507226221095447
1.694,-0.03447764704695849
1.696,-0.05304599772832149
1.698,-0.043223735047719924
1.7,-0.034456145274307376
1.702,-0.024262555543361895
1.704,-0.01724125809106439
1.706,-0.04233903683846369
1.708,-0.0272070526067808
1.71,-0.06475737969205628
1.712,-0.0019735147279384764
1.714,-0.0017623062376451125
1.716,-0.03788688830415062
1.718,-0.05580600253818286
1.72,-0.034734308122242895
1.722,-0.016695967644648032
1.724,-0.04301600745571357
1.726,-0.015367131388039749
1.728,-0.011322192382350448
1.73,-0.02743903434554159
1.732,-0.06883413303588093
1.734,-0.04534146369705519
1.736,-0.029313925736102094
1.738,0.0025837951595069093
1.74,-0.032846748830678375
1.742,-0.015172768788630268
1.744,-0.04928722486824754
1.746,-0.06399064410925122
1.748,-0.006589625409652546
1.75,0.03230502200224347
1.752,0.00046805746661542427
1.754,0.022323878527418923
1.756,-0.019765479754767598
1.758,0.01173994099461352
1.76,0.008039087080511938
1.762,-0.005367866751384558
1.764,0.012871184307060152
1.766,0.0006024118253512845
1.768,0.02562567909185889
1.77,0.005775970314410683
1.772,0.03018854970528902
1.774,0.003187547385383495
1.776,0.02846865265913274
1.778,0.05274345117353815
1.78,0.04411127150112393
1.782,0.007389655063639075
1.784,0.03568243606587535
1.786,0.04658181544188
1.788,0.03832619781961712
1.79,0.04197241792296755
1.792,0.0499423463824109
1.794,0.04230884039184446
1.796,0.0812409140941314
1.798,0.0684343955630201
1.8,0.052831986742102925
1.802,0.07632309152918314
1.804,0.054281091658790984
1.806,0.053211585392043424
1.808,0.046561811674077414
1.81,0.09468082398240611
1.812,0.05798522366297664
1.814,0.11117838682336215
1.816,0.07358911493779277
1.818,0.06284949481330196
1.82,0.0876404354086056
1.822,0.07112546633646978
1.824,0.0806904195059673
1.826,0.06892202822193011
1.828,0.051895283815901354
1.83,0.06362178513400704
1.832,0.055579857392221405
1.834,0.08967651423578286
1.836,0.07009882685282479
1.838,0.06918574084744933
1.84,0.05291295291220187
1.842,0.08136118500785054
1.844,0.02909701872100144
1.846,0.04069248660166701
1.848,0.042697317814895434
1.85,0.021113429335314175
1.852,0.06785715340572289
1.854,0.04693124353521802
1.856,-0.0036555758154190945
1.858,0.0035720863014377657
1.86,-0.013657932731981154
1.862,0.0028101383001922393
1.864,-0.014483193594504111
1.866,-0.01189773388958916
1.868,-0.005803893374735469
1.87,0.013522621095021762
1.872,-0.03516012302240199
1.874,-0.008888307977635148
1.8760000000000001,-0.04719014726968896
1.8780000000000001,-0.030100755739175575
1.8800000000000001,-0.05329371357010689
1.8820000000000001,-0.04655836387393851
1.8840000000000001,-0.07505922916689473
1.8860000000000001,-0.050780917952480104
1.8880000000000001,-0.08605777255337502
1.8900000000000001,-0.09000989501616358
1.8920000000000001,-0.06275545517810908
1.8940000000000001,-0.0837038770699586
1.8960000000000001,-0.12429935736800768
1.8980000000000001,-0.10489257619622208
1.9000000000000001,-0.08932183484328605
1.9020000000000001,-0.08284494165677704
1.9040000000000001,-0.0960175559476593
1.9060000000000001,-0.06270553354986774
1.9080000000000001,-0.10554130022329
1.9100000000000001,-0.019889030217352707
1.9120000000000001,0.01064194531916102
1.9140000000000001,0.016234094073748
1.9160000000000001,0.04230295372883915
1.9180000000000001,0.07346106497942063
1.92,0.09679629450791705
1.922,0.10899618323664127
1.924,0.10739108020528125
1.926,0.21045027347885378
1.928,0.27014899959238897
1.93,0.3242584838592649
1.932,0.33658153882915
1.934,0.4183022800267913
1.936,0.4886284666319959
1.938,0.5345454104860689
1.94,0.5951493016504862
1.942,0.6191276959278754
1.944,0.6738134541848527
1.946,0.7455787731073369
1.948,0.7845228092194173
1.95,0.8275597394064262
1.952,0.830519574887996
1.954,0.887798807863422
1.956,0.9457051505813743
1.958,0.9558351294280778
1.96,0.9334899658438459
1.962,0.976928447334186
1.964,0.9665113369831079
1.966,0.9687500063796793
1.968,0.961917817587291
1.97,0.9424172294194301
1.972,0.9341472039435335
1.974,0.9037954176240534
1.976,0.8986700911803343
1.978,0.8241509330509007
1.98,0.812215607916584
1.982,0.7855738685959153
1.984,0.7217883467466794
1.986,0.7068995315008452
1.988,0.6904197530665878
1.99,0.6087527682314019
1.992,0.5683437739823457
1.994,0.48704359873939934
1.996,0.4600528175658278
1.998,0.42201110975268313
2.0,0.3993331540923249
2.0020000000000002,0.33158913593574757
2.004,0.271031350537681
2.0060000000000002,0.24733585976787775
2.008,0.18980788301011767
2.0100000000000002,0.16959024596746922
2.012,0.11505853148982781
2.0140000000000002,0.12780598173119523
2.016,0.0823671619525317
2.0180000000000002,0.09347063490041997
2.02,0.055715466565785805
2.0220000000000002,0.05348646633339277
2.024,0.004709046101005605
2.0260000000000002,0.004891799852598117
2.028,0.02362602582297681
2.0300000000000002,-0.034980169073201964
2.032,-0.009751635277414532
2.0340000000000003,-0.03376493835065461
2.036,0.012306364690762624
2.0380000000000003,-0.025026813269315717
2.04,-0.03692734875216035
2.0420000000000003,-0.026042299147658446
2.044,0.01240306724442497
2.0460000000000003,-0.013858166942394097
2.048,0.01744855441382544
2.05,-0.0019367061584100627
2.052,-0.03883710151976484
2.054,0.000661416845177171
2.056,0.017541712803181092
2.058,0.02371913935260251
2.06,0.00878150051261417
2.062,0.009547198575820875
2.064,0.024557835408636156
2.066,0.0165747233332755
2.068,-0.004865748461175498
2.07,0.018852046799367455
2.072,0.018274137167931897
2.074,-0.023508189458925
2.076,0.005297330092325136
2.078,0.02545258058621169
2.08,-0.0054902867276349415
2.082,0.008052620096637528
2.084,0.03480137509023959
2.086,0.013791152793214152
2.088,0.040061656826919576
2.09,0.040796032880900585
2.092,0.025628269932870137
2.094,0.028001850695311636
2.096,0.03532138761060902
2.098,0.0263931493114169
2.1,0.03736012232215123
2.102,0.027397364651145426
2.104,-0.004717145004207813
2.106,-0.0021985485868753034
2.108,0.026836350356014258
2.11,0.010588301689995253
2.112,-0.003050235186682555
2.114,0.04858909864319583
2.116,0.03352591862109117
2.118,0.016300999621425356
2.12,0.039835422047286864
2.122,0.00809074220314842
2.124,0.022349334240343
2.126,0.035766131764179906
2.128,0.03864709710571721
2.13,0.03219722859524567
2.132,0.02661197764796992
2.134,0.0020150740642898854
2.136,0.024707842952793872
2.138,0.034556071014576584
2.14,0.042813439885180264
2.142,0.03868970193675608
2.144,0.045118982280895344
2.146,0.017687517225816105
2.148,0.03485472614724948
2.15,0.034085389558024246
2.152,0.003221721573560943
2.154,0.012797901108770455
2.156,0.024186950617196144
2.158,0.0022663940936314365
2.16,0.0008829165160750257
2.162,0.010255251644863331
2.164,0.02586916271917408
2.166,0.001986642613412637
2.168,0.05575801063643663
2.17,0.023900017141984527
2.172,0.01402613780900407
2.174,0.021575584312185547
2.176,0.019386553728313216
2.178,0.033359365888334595
2.18,0.01461340008580978
2.182,-0.0059004142515663525
2.184,0.029029139146131096
2.186,0.04082326257563622
2.188,0.022015209340760594
2.19,-0.0017788723226982526
2.192,-0.0387329022898458
2.194,0.023856320897733974
2.196,0.010124004190022053
2.198,0.06084035346555244
2.2,-0.03040270344518883
2.202,0.028900733230878817
2.204,0.03382122519440167
2.206,0.03977017772401929
2.208,-0.014810223086315421
2.21,0.02991440657529821
2.212,0.0066245184730092735
2.214,-0.004440329511733527
2.216,0.0047483333735372155
2.218,-0.0016352528685450937
2.22,-0.008592623452581886
2.222,-0.004827017176926809
2.224,-0.022809074968396993
2.226,-0.03769084683522354
2.228,-0.03948077665466728
2.23,-0.03257071932832984
2.232,-0.016887464642688144
2.234,-0.05323913989699293
2.236,-0.05866237741102513
2.238,-0.030197756567280055
2.24,-0.05409644688910628
2.242,-0.06462545663676905
2.244,-0.01156186346472153
2.246,-0.031668756444831775
2.248,-0.03975822248129884
2.25,-0.07144562971349001
2.2520000000000002,-0.06655635423715996
2.254,-0.05592446275564505
2.2560000000000002,-0.05169160804526484
2.258,-0.06030779537472976
2.2600000000000002,-0.08439513517741194
2.262,-0.08164267889753404
2.2640000000000002,-0.07860204660071726
2.266,-0.058643679563547164
2.2680000000000002,-0.047061581419105665
2.27,-0.05478217159591232
2.2720000000000002,-0.07872557339842508
2.274,-0.038159976233713325
2.2760000000000002,-0.07721290613415702
2.278,-0.08391464072638435
2.2800000000000002,-0.09811359716481058
2.282,-0.07731720609543448
2.2840000000000003,-0.11300951760252884
2.286,-0.12534545314105527
2.2880000000000003,-0.09967288710841668
2.29,-0.07421823094974518
2.2920000000000003,-0.10898198913222269
2.294,-0.08646817234337952
2.2960000000000003,-0.10369259526881605
2.298,-0.08621963939607694
2.3000000000000003,-0.09597673428925821
2.302,-0.14184304202721834
2.3040000000000003,-0.11566687439183379
2.306,-0.10799876643019446
2.308,-0.09916742972166354
2.31,-0.0891361990885553
2.312,-0.0763142058759465
2.314,-0.10391411760673092
2.316,-0.11890677961714549
2.318,-0.15059028329992952
2.32,-0.09799210711240829
2.322,-0.1317544015882204
2.324,-0.11456581727900501
2.326,-0.1100992858906194
2.328,-0.12216036413500202
2.33,-0.09700137172002124
2.332,-0.09639535557854657
2.334,-0.0743177987269455
2.336,-0.0927487537881124
2.338,-0.08099248851300346
2.34,-0.106372945340615
2.342,-0.11224206084522778
2.344,-0.0983811363966475
2.346,-0.08845604448599924
2.348,-0.06105850730118667
2.35,-0.07602803351947657
2.352,-0.08026243273419825
2.354,-0.07355593774488468
2.356,-0.08400899664612682
2.358,-0.05777740111774797
2.36,-0.05578872332211513
2.362,-0.0761932658693056
2.364,-0.01637444645060719
2.366,-0.07406975195549668
2.368,-0.05648929707575307
2.37,-0.0787082947544594
2.372,-0.06096974407948088
2.374,-0.020412335774611795
2.376,-0.018438211681392647
2.378,-0.0581330052293654
2.38,-0.06899700504898246
2.382,0.01310762559210528
2.384,-0.020028323202216224
2.386,-0.011856838811912782
2.388,-0.018937907300676668
2.39,-0.0354869300340028
2.392,-0.024741128394804766
2.394,-0.0138785391920443
2.396,-0.027976521736371784
2.398,0.00043470233493071025
2.4,0.0024402815928074514
2.402,0.03837615056947628
2.404,-0.01308091766223577
2.406,0.008283039490603036
2.408,0.025368193478384357
2.41,0.014061301879769887
2.412,-0.01300716503153105
2.414,0.007417787689751855
2.416,0.0364622244575173
2.418,0.014168304887955289
2.42,0.008606237475502109
2.422,0.01795261962187584
2.424,0.007279163741243853
2.426,0.06427056618242347
2.428,0.02971144507915629
2.43,0.056660560264973334
2.432,0.04348149450384514
2.434,0.03975731101213652
2.436,0.03651023888783344
2.438,0.055383667973984384
2.44,0.0716998504052683
2.442,0.03409144370207977
2.444,0.0684101243319874
2.446,0.03004769504664643
2.448,0.0044058794517868715
2.45,0.06897912537922439
2.452,0.05603795948069359
2.454,0.06478880150742518
2.456,0.06441315075604866
2.458,0.06889782107276127
2.46,0.027134162153073627
2.462,0.046221469677696705
2.464,0.018727254241964406
2.466,0.04132483195681658
2.468,0.045289938424895995
2.47,0.04632350257119553
2.472,0.017548859006699447
2.474,0.046280391070387984
2.476,0.0749211332311024
2.478,0.07648113711497745
2.48,0.03290032674605813
2.482,0.033075170244073894
2.484,0.04464952842359676
2.486,0.02562001795454855
2.488,0.06945492692095663
2.49,0.027305066045306768
2.492,0.015933556533985822
2.494,0.026515311724421203
2.496,-0.006349748733691457
2.498,0.06414401133395267
2.5,0.01312815129198697
2.5020000000000002,0.06571665854183496
2.504,0.03445994269218542
2.5060000000000002,0.09241878026517056
2.508,0.05148157167348258
2.5100000000000002,0.053843728509637416
2.512,0.08561034933160253
2.5140000000000002,0.05966073463023362
2.516,0.03015515027881447
2.5180000000000002,0.07577641306718984
2.52,0.013262333692300484
2.5220000000000002,0.06730009762675314
2.524,0.03122103522781385
2.5260000000000002,0.08311960850091346
2.528,0.038624766327719315
2.5300000000000002,0.04619347935061352
2.532,0.03914117723137559
2.5340000000000003,0.06658392983971517
2.536,0.06214905568666385
2.5380000000000003,0.051693540961083306
2.54,0.04988956533685883
2.5420000000000003,0.020063120085539742
2.544,0.030893228711182264
2.5460000000000003,0.045637311474356665
2.548,0.04601459488336982
2.5500000000000003,0.01575948330825099
2.552,0.055832451196712526
2.5540000000000003,0.028070132414781273
2.556,0.041126882580749126
2.5580000000000003,0.04352056567230065
2.56,0.07671709471426925
2.562,0.04286264705626247
2.564,0.09115589578917349
2.566,0.04007446842691654
2.568,0.03839011656278464
2.57,0.03168850056322255
2.572,0.06503592282339289
2.574,0.05117185608863493
2.576,0.06930617879273565
2.578,0.0436769543692725
2.58,0.054755780436924875
2.582,0.06442973240156424
2.584,0.06275683164920656
2.586,0.05532185071898458
2.588,0.08607665524594899
2.59,0.051946343117599846
2.592,0.08429513028833348
2.594,0.008919442336684257
2.596,0.04411472102326289
2.598,0.03802845381052253
2.6,0.055499486061354575
2.602,0.056242803857607875
2.604,0.05003183084108925
2.606,0.05446708956434706
2.608,0.048314184364324914
2.61,0.06900852620693876
2.612,0.03854941646984164
2.614,0.08757290309782415
2.616,0.036363663520529346
2.618,0.0872611600085764
2.62,0.054470079830360736
2.622,0.10882888969821372
2.624,0.10525607773252546
2.626,0.10804011901727625
2.628,0.08754465283451013
2.63,0.10243769487523759
2.632,0.10842964728286032
2.634,0.11836889544814691
2.636,0.11049255725545246
2.638,0.11719041976225497
2.64,0.09367224168138848
2.642,0.12383032676806734
2.644,0.09880967276047144
2.646,0.11485583675158043
2.648,0.13283487810289765
2.65,0.13640662480821336
2.652,0.1021625519966499
2.654,0.10249427208722371
2.656,0.07736220174994543
2.658,0.13518145603044113
2.66,0.11081747935436735
2.662,0.1357285261985073
2.664,0.10408531061685808
2.666,0.1671717149931849
2.668,0.16571693026987663
2.67,0.15158999270764034
2.672,0.11129762196736238
2.674,0.12294100068808211
2.676,0.15965769877625866
2.678,0.16095927812189
2.68,0.1523567690813355
2.682,0.11066301129980602
2.684,0.13196278464161432
2.686,0.15258037049076928
2.688,0.12482266558225139
2.69,0.11296324979523076
2.692,0.1176589203636636
2.694,0.09624467806474163
2.696,0.0883536666742819
2.698,0.11172435487903032
2.7,0.10306523608089768
2.702,0.09571663636038041
2.704,0.08646035709259953
2.706,0.08068593346005522
2.708,0.09519541480007487
2.71,0.11118981790960228
2.712,0.04744978886732711
2.714,0.0321985313034997
2.716,0.0783870883322195
2.718,0.09618847912029513
2.72,0.05387237517371872
2.722,0.07287011911747118
2.724,0.07442518496353748
2.726,0.05381029987081394
2.728,0.03019581633530094
2.73,0.054145276076128915
2.732,0.04363629030493142
2.734,-0.017771505275116548
2.736,0.007291500334947149
2.738,0.04180858418063599
2.74,-4.618391451584325e-06
2.742,0.0014601353160955469
2.744,-0.02615590275498158
2.746,-0.02256076333746323
2.748,-0.029234983525355203
2.75,-0.04692338483485918
2.7520000000000002,-0.03905014671049866
2.754,-0.045537867308142285
2.7560000000000002,-0.08519697456896785
2.758,-0.049744917189847054
2.7600000000000002,-0.022807187657141133
2.762,-0.02095067118330597
2.7640000000000002,0.0012996477651688251
2.766,-0.04839431589093526
2.7680000000000002,0.026852563893423165
2.77,-0.009820638904987206
2.7720000000000002,0.09681383052468324
2.774,0.06645035504233927
2.7760000000000002,0.12800847971555915
2.778,0.17291809182479784
2.7800000000000002,0.23359414505738946
2.782,0.21143371083529744
2.7840000000000003,0.2560979129806821
2.786,0.32759269155472737
2.7880000000000003,0.3849038782455188
2.79,0.4205535097048576
2.7920000000000003,0.4746482333650608
2.794,0.5296430949118383
2.7960000000000003,0.5581510108637366
2.798,0.6497226336679268
2.8000000000000003,0.7055046970809208
2.802,0.7497212412711809
2.8040000000000003,0.8434851590902963
2.806,0.8467059741792297
2.8080000000000003,0.8608041798699155
2.81,0.8798931801984327
2.8120000000000003,0.9642558946293333
2.814,0.9765598890714182
2.816,1.0259335802497629
2.818,0.9894778949064741
2.82,0.9986225114298392
2.822,1.02126034658706
2.824,0.9973505345108947
2.826,0.9810430535950546
2.828,0.9733952735798719
2.83,0.9532575256935318
2.832,0.9600625680918454
2.834,0.9046914454951062
2.836,0.8670094289087721
2.838,0.8754593903095624
2.84,0.8474237738740837
2.842,0.752687274780716
2.844,0.734847679979483
2.846,0.6672754887783646
2.848,0.5929926691917421
2.85,0.5766976485878285
2.852,0.5078496116325149
2.854,0.4581061461159247
2.856,0.4555657997946939
2.858,0.35857640288489595
2.86,0.317646645526087
2.862,0.2963728748558425
2.864,0.2600240662672473
2.866,0.20946493299850708
2.868,0.18769472993553196
2.87,0.15350641581783983
2.872,0.10511947119772072
2.874,0.13359820860455668
2.876,0.07938743512565374
2.878,0.05222316330394956
2.88,0.0498400990014469
2.882,0.013365623712333718
2.884,0.020126672358331675
2.886,-0.02001931583595925
2.888,0.011945086215099201
2.89,0.0045677666596830365
2.892,-0.03641144384118691
2.894,-0.016702722429472187
2.896,0.006473575259343809
2.898,0.016518996192531915
2.9,-0.0025769926934734767
2.902,-0.0007226271010206745
2.904,0.013247883455930129
2.906,0.011771121491181634
2.908,-0.0355769144740717
2.91,0.013368644087143758
2.912,-0.012036865476681294
2.914,0.00761404938026968
2.916,-0.006848082402934694
2.918,-0.01749400267913772
2.92,0.026336682086794475
2.922,0.01655545561329475
2.924,0.007915589774810198
2.926,-0.014158599314331055
2.928,-0.00042128055770135255
2.93,0.008944975998821889
2.932,0.009966388079447486
2.934,0.020947768913227284
2.936,0.014775909828055182
2.938,0.010291190191697299
2.94,0.004789613395454869
2.942,0.025526823242747704
2.944,0.013280524599072379
2.946,-0.03069327900180973
2.948,0.004097696578725904
2.95,0.001927274952509021
2.952,-0.01376564659100233
2.954,0.010215492547349865
2.956,0.004201218633438594
2.958,0.026526433119097692
2.96,-0.014456904631692035
2.962,-0.007836186758059808
2.964,-0.008709572047345715
2.966,-0.012868541654972292
2.968,0.0008050688520069684
2.97,0.019190470584385257
2.972,-0.014515809111531776
2.974,-0.01466194460802945
2.976,-0.00617552596464936
2.978,-0.007931872923789062
2.98,-0.026401496189259174
2.982,0.00014745658905025456
2.984,0.001188263579817258
2.986,-0.005792180081674318
2.988,0.03466306428543306
2.99,-0.014512424711827916
2.992,-0.02999142409893442
2.994,-0.025067098565478476
2.996,-0.018458296009006697
2.998,-0.007349944874130445
3.0,-0.030523987284842697
3.0020000000000002,0.01700968951806718
3.004,-0.029776185576359086
3.0060000000000002,0.020938552783761312
3.008,-0.005479101805972082
3.0100000000000002,0.00430517953431293
3.012,0.00019822645235509449
3.0140000000000002,-0.03900931577637008
3.016,-0.008021719874744817
3.0180000000000002,0.0267104242921583
3.02,-0.010958192963061447
3.0220000000000002,0.006539012547342616
3.024,0.00368615140811272
3.0260000000000002,-0.018661257848299816
3.028,0.01423004932975823
3.0300000000000002,-0.03269332592147706
3.032,-0.011315688539060308
3.0340000000000003,-0.017491785722615963
3.036,-0.0010169104035507139
3.0380000000000003,-0.020025716120107465
3.04,-0.04536911991151078
3.0420000000000003,0.025562069435295515
3.044,-0.038306139808094296
3.0460000000000003,-0.0498939266850591
3.048,-0.03852092022247683
3.0500000000000003,0.0009462586530328762
3.052,-0.015679071237708588
3.0540000000000003,-0.02287683792576184
3.056,-0.046493626677182306
3.0580000000000003,-0.01644155220629051
3.06,-0.02368573263273313
3.0620000000000003,-0.02827365840744711
3.064,-0.052824776834631576
3.0660000000000003,-0.04766185263568651
3.068,-0.039971905830111974
3.0700000000000003,-0.012706474845444057
3.072,-0.048690708370798724
3.074,-0.02269191038042541
3.076,-0.04669451681071722
3.078,-0.05098297098222992
3.08,-0.035614322709227084
3.082,-0.07560774522556357
3.084,-0.046472552839570254
3.086,-0.07563785027923836
3.088,-0.03233614717824
3.09,-0.09493076337104323
3.092,-0.08623095251230838
3.094,-0.09254270346170071
3.096,-0.07686418104842908
3.098,-0.05521743186745964
3.1,-0.09544564883441356
3.102,-0.08731167491875831
3.104,-0.08055907315028335
3.106,-0.12979649771436658
3.108,-0.11189798108073362
3.11,-0.09585326652224284
3.112,-0.144171713552372
3.114,-0.10332376751173723
3.116,-0.09168431576839892
3.118,-0.09651707134607829
3.12,-0.1627361142324624
3.122,-0.13636002074827588
3.124,-0.13423386225769707
3.126,-0.11546099227310695
3.128,-0.11001861970861287
3.13,-0.14001833756716361
3.132,-0.12411962560344941
3.134,-0.11515503891902065
3.136,-0.16618541338137896
3.138,-0.13760281087561219
3.14,-0.11541129974682343
3.142,-0.1437052564774548
3.144,-0.12092933279049208
3.146,-0.1784418284546689
3.148,-0.1476633788703262
3.15,-0.18022834075147262
3.152,-0.12911778721223885
3.154,-0.17911473602457623
3.156,-0.1336303880359383
3.158,-0.19954809468126705
3.16,-0.17664774222667032
3.162,-0.17697896159111795
3.164,-0.15335373239613562
3.166,-0.1427367689557766
3.168,-0.16332615970802677
3.17,-0.2039757258132549
3.172,-0.167205061064152
3.174,-0.14330996607740215
3.176,-0.1644108852750534
3.178,-0.14728020132120576
3.18,-0.15595822020273328
3.182,-0.162956236318026
3.184,-0.15424488397040448
3.186,-0.1864095842146573
3.188,-0.174278910751242
3.19,-0.1567964043976603
3.192,-0.20007236583435586
3.194,-0.18872193175435942
3.196,-0.167940701016625
3.198,-0.1803409305950463
3.2,-0.17475353667475976
3.202,-0.17064231432682478
3.204,-0.15852359892091894
3.206,-0.16717812840681012
3.208,-0.1312115289915928
3.21,-0.15427779377659634
3.212,-0.15391166994691655
3.214,-0.11536794150206262
3.216,-0.14568920831805077
3.218,-0.14491479323382567
3.22,-0.15742908238977324
3.222,-0.14764713590741263
3.224,-0.12481395232333173
3.226,-0.12397167234825451
3.228,-0.11474064307327624
3.23,-0.11269042537698545
3.232,-0.1034920639992749
3.234,-0.11526321451271754
3.236,-0.12522058966765628
3.238,-0.11144340549649198
3.24,-0.06703061713000008
3.242,-0.11277132975094945
3.244,-0.13224531022018773
3.246,-0.13729694789190625
3.248,-0.09082782052952354
3.25,-0.09000186644367408
3.2520000000000002,-0.09587514888764079
3.254,-0.05779696591287199
3.2560000000000002,-0.1016230673733689
3.258,-0.10871771962492674
3.2600000000000002,-0.0919883757664886
3.262,-0.10393920168339531
3.2640000000000002,-0.07019619779083376
3.266,-0.07525054125291153
3.2680000000000002,-0.0728371781227907
3.27,-0.06871513128415013
3.2720000000000002,-0.09083906154407478
3.274,-0.0665982695830317
3.2760000000000002,-0.05782929993913112
3.278,-0.037029218308614484
3.2800000000000002,-0.09983472933546506
3.282,-0.05410524625247397
3.2840000000000003,-0.07321661697347494
3.286,-0.0518869025857112
3.2880000000000003,-0.05168397412635416
3.29,-0.053978405848554664
3.2920000000000003,-0.05699790619097432
3.294,-0.07491443943743387
3.2960000000000003,-0.03579443402986359
3.298,-0.06105447414327421
3.3000000000000003,-0.03372032045709
3.302,-0.037459138763689656
3.3040000000000003,-0.05021559277794172
3.306,-0.05135694893868907
3.3080000000000003,-0.010408970850305592
3.31,-0.05021751884252203
3.3120000000000003,-0.058214814033914236
3.314,-0.05599853712429661
3.3160000000000003,-0.03294649398866557
3.318,-0.01458540486403988
3.3200000000000003,-0.03550658820314625
3.322,-0.06048716487093781
3.3240000000000003,-0.024453775706421647
3.326,-0.040360083531672364
3.3280000000000003,-0.04222621728790746
3.33,-0.05492165198770592
3.332,-0.0743845809853111
3.334,-0.05131744346740087
3.336,-0.06646071910855955
3.338,-0.0508051472344701
3.34,-0.03108741783765895
3.342,-0.08072014174711457
3.344,-0.042310504029816065
3.346,-0.03111150505030104
3.348,-0.04459123650976244
3.35,-0.0753401758580608
3.352,-0.03690700377298943
3.354,-0.0046465080573967355
3.356,-0.0801003783797149
3.358,-0.0601193644250124
3.36,-0.036894401672520616
3.362,-0.03803761867921799
3.364,-0.06724260514589538
3.366,-0.05120043466556671
3.368,-0.050226751907582745
3.37,-0.06164258390501164
3.372,-0.04556611653739261
3.374,-0.07637354335164759
3.376,-0.06525589223108737
3.378,-0.05543904491133675
3.38,-0.05640279884283192
3.382,-0.030705235932278592
3.384,0.021770125861480655
3.386,-0.0269412956237321
3.388,-0.037121322165605555
3.39,-0.04110919695328932
3.392,-0.07063572931493162
3.394,-0.031112450577645164
3.396,-0.023478119869503433
3.398,-0.05401332591506423
3.4,-0.0656330935540474
3.402,-0.07259213219772714
3.404,-0.038804577169939534
3.406,-0.02911526799362366
3.408,-0.026544826602328642
3.41,-0.057063550137608623
3.412,-0.038822249681587324
3.414,-0.022537302795793475
3.416,-0.06815105823471955
3.418,-0.043310651094319134
3.42,-0.027946110299626473
3.422,-0.03917234542747991
3.424,-0.056287104705866765
3.426,-0.06693473299124049
3.428,-0.0693888377529188
3.43,-0.047568115998707604
3.432,-0.023683450706863146
3.434,-0.05958766174290909
3.436,-0.06571757699494198
3.438,-0.046220718991022154
3.44,-0.03188068357773659
3.442,-0.057215387292354446
3.444,-0.034445103263608216
3.446,-0.0423042728131482
3.448,-0.011485593152658855
3.45,-0.08479493112203973
3.452,-0.009936769551428621
3.454,-0.04213318327397033
3.456,-0.036874276017193
3.458,-0.019857383276952006
3.46,0.0007881059669153315
3.462,-0.03262767025061132
3.464,-0.05471313939456324
3.466,0.006791213650017308
3.468,-0.019891444048410326
3.47,-0.027597812483081983
3.472,-0.016132992889149045
3.474,0.02116758767281267
3.476,-0.035967253447638146
3.478,0.016195424010415065
3.48,-0.04980334425872645
3.482,-0.019877226065724778
3.484,0.01751525089004922
3.486,-0.03214429603713761
3.488,-0.02383318709727296
3.49,0.007111469645378905
3.492,-0.008337520946492573
3.494,0.03199315685237265
3.496,0.007052271024127983
3.498,0.004444723716055324
3.5,0.012941215385641025
3.5020000000000002,0.007690471794991924
3.504,0.03637845320518204
3.5060000000000002,0.05677181400686452
3.508,0.03302583213227453
3.5100000000000002,0.038766036851549855
3.512,0.022789674686293587
3.5140000000000002,0.027240464411736207
3.516,0.04663475810270404
3.5180000000000002,0.0284008459036771
3.52,0.02403595106882872
3.5220000000000002,0.036279391447926565
3.524,0.05308087091353176
3.5260000000000002,0.0749758292863038
3.528,0.043033526009126896
3.5300000000000002,0.03673316612494126
3.532,0.0638719660796451
3.5340000000000003,0.04200837052720971
3.536,0.0465071071685591
3.5380000000000003,0.014211924836095902
3.54,0.05789515907355357
3.5420000000000003,0.06180188732612355
3.544,0.03951649276867758
3.5460000000000003,0.04104358003785268
3.548,0.025178479755029577
3.5500000000000003,0.0370731966500816
3.552,0.05611983226220991
3.5540000000000003,0.02650630631097068
3.556,0.04783604762911661
3.5580000000000003,-0.0023548836706165227
3.56,-0.02434471433993414
3.5620000000000003,0.034703833615529645
3.564,0.008876210069187332
3.5660000000000003,0.01583592255328789
3.568,-0.004123806747274535
3.5700000000000003,-0.01296592624589863
3.572,-0.016342946058305982
3.5740000000000003,-0.04497898790958689
3.576,-0.020964771540618925
3.5780000000000003,-0.028707036874700713
3.58,-0.054838783588091446
3.5820000000000003,-0.04373951403869688
3.584,-0.01977256389905685
3.586,-0.05837217047865199
3.588,-0.07553657235081178
3.59,-0.08235827417910785
3.592,-0.09180352144481346
3.594,-0.07902852346209993
3.596,-0.10557213096741366
3.598,-0.11533650816908028
3.6,-0.11618363877109929
3.602,-0.09155047290177584
3.604,-0.11184336229627452
3.606,-0.09898788482056467
3.608,-0.142407897635882
3.61,-0.12692885098729834
3.612,-0.14088187795212448
3.614,-0.15673872824581098
3.616,-0.13279299048791346
3.618,-0.12372354744599684
3.62,-0.11679381148975854
3.622,-0.0956650985915029
3.624,-0.06573595585318863
3.626,-0.01918654320099443
3.628,-0.03832734880181682
3.63,0.01393662310159165
3.632,0.017865093602629827
3.634,0.040799713715490335
3.636,0.04912222459475665
3.638,0.1466672134405538
3.64,0.18334137523276975
3.642,0.23677815615993567
3.644,0.2627307943814567
3.646,0.31010268561369836
3.648,0.3988743352276578
3.65,0.42635779330375584
3.652,0.509190128792872
3.654,0.5500294295378453
3.656,0.572395496792645
3.658,0.619476222326541
3.66,0.6566217685271574
3.662,0.7742916056368861
3.664,0.7457392028529629
3.666,0.841899819571902
3.668,0.8735219559843738
3.67,0.8815317326383505
3.672,0.9057893277224125
3.674,0.8868251356193481
3.676,0.9450332144491685
3.678,0.9563213938450098
3.68,0.9620979362743189
3.682,0.9526584285791091
3.684,0.9345205049032772
3.686,0.9514259232020891
3.688,0.8822364694042686
3.69,0.8695213768617361
3.692,0.8318924336773543
3.694,0.7844948263724706
3.696,0.7365846122052198
3.698,0.7298825527892165
3.7,0.6975775900777167
3.702,0.6147468430824117
3.704,0.5923002712826234
3.706,0.5640456995763177
3.708,0.49433775497439064
3.71,0.45217707837224486
3.712,0.3924660398478458
3.714,0.35062255783266627
3.716,0.28725033399741096
3.718,0.27537337591309047
3.72,0.19374218318206485
3.722,0.17646792362417285
3.724,0.13855486582867582
3.726,0.14017671366260112
3.728,0.08286417382966776
3.73,0.04972802670314365
3.732,0.06914940890793722
3.734,-0.0016319877279264011
3.736,-0.0032379697467692994
3.738,0.011350350807814345
3.74,-0.019011668308041355
3.742,-0.09102983463892278
3.744,-0.05373042920644196
3.746,-0.059366125771470324
3.748,-0.024305315167491775
3.75,-0.05668784270578553
3.7520000000000002,-0.0553403211582778
3.754,-0.07019385804413299
3.7560000000000002,-0.04733275973562648
3.758,-0.04241924560986198
3.7600000000000002,0.005576483623764523
3.762,-0.034781170312719545
3.7640000000000002,-0.05154937052553095
3.766,-0.039003013794469604
3.7680000000000002,-0.05648953529732047
3.77,-0.04398304286046093
3.7720000000000002,-0.007197502147714181
3.774,0.0044612679362198305
3.7760000000000002,0.014289264760957791
3.778,-0.021708324783119553
3.7800000000000002,-0.021675786916364966
3.782,-0.044964383185858124
3.7840000000000003,-0.08444028156877767
3.786,-0.030793449239555005
3.7880000000000003,-0.011783533145945458
3.79,-0.052458257914464616
3.7920000000000003,-0.034084150962144955
3.794,-0.027728709353332832
3.7960000000000003,0.002434393409150421
3.798,-0.02102436324657558
3.8000000000000003,-0.031583073647309154
3.802,-0.017123073403706203
3.8040000000000003,-0.0052013678389367796
3.806,-0.04269156869833494
3.8080000000000003,-0.014032079451983932
3.81,-0.02970180427794837
3.8120000000000003,-0.02864619248274682
3.814,-0.059108095355457364
3.8160000000000003,-0.031061130226018398
3.818,-0.005147637903829228
3.8200000000000003,-0.0027237145183386445
3.822,-0.021344958925676217
3.8240000000000003,-0.012712065989552873
3.826,-0.045528086131300195
3.8280000000000003,-0.031074437705217103
3.83,0.005970204217802
3.8320000000000003,0.0015870755916511893
3.834,-0.03559213615367039
3.8360000000000003,-0.035466263788724035
3.838,0.016979239330050133
3.84,-0.026718303527133207
3.842,-0.014605933950670308
3.844,-0.03783402308234266
3.846,0.02007182361395727
3.848,0.00046182451423035014
3.85,-0.04522668727862517
3.852,-0.06378712405731202
3.854,0.005849140120103562
3.856,0.0022559337365162984
3.858,0.016067823078937043
3.86,-0.04633007430882763
3.862,-0.010430164365723043
3.864,-0.03260800350638631
3.866,-0.028241203742598225
3.868,-0.004882159200568798
3.87,-0.027822385067750945
3.872,-0.03379711485867915
3.874,0.003749915050052495
3.876,-0.040923667478004494
3.878,-0.010804124055918062
3.88,0.01664997184629686
3.882,-0.014180908301414
3.884,-0.03691578238777373
3.886,-0.03077323702431927
3.888,-0.029352705689992546
3.89,-0.03568475718636002
3.892,-0.01770107609811203
3.894,-0.035265025064979076
3.896,-0.055179862624987475
3.898,-0.04799292192928072
3.9,-0.05478545520202047
3.902,-0.013034927639527382
3.904,-0.060095909170878516
3.906,-0.04085342102044531
3.908,-0.045964460506568224
3.91,-0.0033232481848400764
3.912,-0.028765416716739878
3.914,-0.02529611819949262
3.916,-0.0180790686833889
3.918,-0.01694506055292879
3.92,-0.049802627299374604
3.922,-0.03945139636961223
3.924,-0.024304126217116757
3.926,-0.013785609784668263
3.928,-0.019987972410562882
3.93,-0.08033441415015298
3.932,-0.055567455377581114
3.934,-0.05067215592086917
3.936,-0.03121092458346915
3.938,-0.0266604328180376
3.94,-0.06834985482995652
3.942,-0.07364207611451634
3.944,-0.08445091369724306
3.946,-0.056815081709705395
3.948,-0.0417045347027393
3.95,-0.07758370552181001
3.952,-0.08115306400253139
3.954,-0.055910381083828814
3.956,-0.0720660441890271
3.958,-0.04837878950517092
3.96,-0.09612791422123598
3.962,-0.1021598048613033
3.964,-0.09676627287442731
3.966,-0.06282686625317423
3.968,-0.08698003848429106
3.97,-0.08492870589058363
3.972,-0.08167585529381732
3.974,-0.09760389540434199
3.976,-0.09816814846221104
3.978,-0.10113727314372788
3.98,-0.12848442434456878
3.982,-0.10057440519913578
3.984,-0.1169513601965023
3.986,-0.10795093445870911
3.988,-0.14243956012259223
3.99,-0.14334340444477556
3.992,-0.08370832192078714
3.994,-0.10217598543888691
3.996,-0.1341239423103503
3.998,-0.1358979450746178
4.0,-0.11089159964889816
4.002,-0.11701136433525308
4.0040000000000004,-0.16288454879302683
4.006,-0.10821537483916997
4.008,-0.10624251673991959
4.01,-0.17349236183849331
4.0120000000000005,-0.13870259133104884
4.014,-0.11699686003335433
4.016,-0.15479478842427297
4.018,-0.14255831085244022
4.0200000000000005,-0.15234604404555033
4.022,-0.1832435251191767
4.024,-0.12998568503938826
4.026,-0.1485247221946046
4.0280000000000005,-0.16037363882638395
4.03,-0.12422802613197517
4.032,-0.1662022631102646
4.034,-0.14496059371920578
4.0360000000000005,-0.1748557001491799
4.038,-0.1179460465963106
4.04,-0.14821894869148022
4.042,-0.15885511941560473
4.0440000000000005,-0.1437975235118414
4.046,-0.14107346657816452
4.048,-0.13917417768392867
4.05,-0.0969116313262623
4.0520000000000005,-0.13814202531216524
4.054,-0.13782919695917675
4.056,-0.11785456289069245
4.058,-0.16536570898926367
4.0600000000000005,-0.08096033249103544
4.062,-0.09370063466909465
4.064,-0.12229113123528196
4.066,-0.10996272327897795
4.0680000000000005,-0.11171232581602977
4.07,-0.0741061308965762
4.072,-0.08055441500436294
4.074,-0.07061590451028774
4.0760000000000005,-0.10482408557509333
4.078,-0.10063776967219766
4.08,-0.05409447344350311
4.082,-0.08482920957797102
4.0840000000000005,-0.07693872134838424
4.086,-0.06271338999149671
4.088,-0.06114501017538494
4.09,-0.0472202291588075
4.0920000000000005,-0.043621517043846994
4.094,-0.0823801563882742
4.096,-0.05549304204727251
4.098,-0.04077603656105659
4.1,-0.04653032535729507
4.102,-0.04514761402603331
4.104,-0.057836889751837255
4.106,-0.06894050589589372
4.108,-0.03036368446608725
4.11,-0.018047715151558966
4.112,-0.0557435005541283
4.114,-0.017932850764491724
4.116,-0.054273105859573526
4.118,-0.0181152322978638
4.12,-0.052364094360224836
4.122,0.0010395883616664964
4.124,0.004289622265816452
4.126,-0.03396542607586625
4.128,-0.02043335391407308
4.13,-0.030239372775389985
4.132,-0.014730764617849937
4.134,0.004833093617402626
4.136,0.0015035928934541073
4.138,-0.012015807624237124
4.14,0.004073875828764353
4.142,0.0025995109816413196
4.144,-0.01992432190132891
4.146,0.03553159542815839
4.148,-0.021053022131143125
4.15,-0.02100243910555284
4.152,0.02126706443060982
4.154,0.004650973992364476
4.156,0.03410441207193647
4.158,0.03418627175591963
4.16,-0.011167953432255108
4.162,0.02814948232746315
4.164,0.044833951135083816
4.166,0.00664869304196811
4.168,-0.007556639657773568
4.17,0.034163847576636985
4.172,0.03789353491104249
4.174,0.043031263338449297
4.176,0.04709590223196582
4.178,0.005134246288439321
4.18,-0.0006841425514130806
4.182,-0.001422228330628269
4.184,0.034935675173971684
4.186,0.03515084238856907
4.188,0.0059793724459597415
4.19,-0.009371673078846942
4.192,0.02611251904053461
4.194,0.02548097592946381
4.196,0.0364892250577224
4.198,0.04896774554520083
4.2,0.021360421308782115
4.202,0.029127209943085562
4.204,0.03895522232923529
4.206,0.03703176109602542
4.208,0.032033346917054006
4.21,0.03741313311391316
4.212,0.042680978181952746
4.214,0.023945925755897993
4.216,0.0098594866336907
4.218,0.037740199126367384
4.22,-0.004911211780876499
4.222,0.04772778807193221
4.224,0.02260963639826411
4.226,0.02639323418020908
4.228,0.055897134526182946
4.23,0.01589524635344548
4.232,0.06849577029380531
4.234,0.01651580534695183
4.236,0.030053508570835222
4.238,0.038944608387395795
4.24,0.030913179364181535
4.242,0.046277568089650035
4.244,-0.003452378097010747
4.246,0.0400550871804092
4.248,0.024258498834955212
4.25,0.03481239941114352
4.252,0.04159006109094594
4.2540000000000004,0.03190029711887841
4.256,0.036567032344503134
4.258,0.04388653114470216
4.26,0.04630778212748931
4.2620000000000005,0.04255597303245503
4.264,0.08599359379990781
4.266,0.0466587057098941
4.268,0.02353295955168022
4.2700000000000005,0.04483689639044247
4.272,0.046082033346065775
4.274,0.02226383181746337
4.276,0.021140501785161116
4.2780000000000005,0.01894443207377467
4.28,0.043916395992242674
4.282,0.03212042991047091
4.284,0.03284670670263271
4.2860000000000005,0.06552958357412368
4.288,0.01641022941182898
4.29,0.08702954886728027
4.292,0.03537082346719156
4.2940000000000005,0.0631590637112461
4.296,0.013959403408338766
4.298,0.05343083876776755
4.3,0.041644289801645806
4.3020000000000005,0.029792201885868598
4.304,-0.004625148026790911
4.306,0.001979187279415656
4.308,0.036173641863528984
4.3100000000000005,0.03622133741335076
4.312,0.058095419442398204
4.314,0.01723333340779444
4.316,0.11459124191231307
4.3180000000000005,0.051371099499007006
4.32,0.10758841116289312
4.322,0.07087365005213292
4.324,0.07719244903226406
4.3260000000000005,0.05828183834589343
4.328,0.07940945941412454
4.33,0.06572637124505841
4.332,0.06071658433983931
4.3340000000000005,0.037885893532048465
4.336,0.09171084773279296
4.338,0.09005352231710204
4.34,0.07152108593085453
4.3420000000000005,0.09247195377158873
4.344,0.08876834011896667
4.346,0.08393023433265415
4.348,0.09346784473556523
4.3500000000000005,0.09683448433092336
4.352,0.09180419603672668
4.354,0.10063470452004253
4.356,0.14807577985064752
4.358,0.10799222490542902
4.36,0.116349450426857
4.362,0.11612231048805335
4.364,0.1197045650955333
4.366,0.12354894483539841
4.368,0.1140973434213407
4.37,0.13193323467403342
4.372,0.1487698076235669
4.374,0.13572288614703082
4.376,0.15961131836630174
4.378,0.13430580107238513
4.38,0.1364059213622898
4.382,0.15204030840901425
4.384,0.14591510983093345
4.386,0.16976338798499652
4.388,0.1832051410634919
4.39,0.16614039592679888
4.392,0.1461406318773653
4.394,0.10509133975279919
4.396,0.14860803541803472
4.398,0.169766529017402
4.4,0.14153702260958928
4.402,0.12094552832330559
4.404,0.1243398620174754
4.406,0.1422298126456057
4.408,0.11803783068958515
4.41,0.12821442852173773
4.412,0.11429233324085818
4.414,0.1255768865982233
4.416,0.1115611510865659
4.418,0.126155751241335
4.42,0.12236679487093591
4.422,0.11251589845255625
4.424,0.10307756685142662
4.426,0.12069341124051136
4.428,0.12977270457026213
4.43,0.10416583973474006
4.432,0.1385897978335623
4.434,0.07143537135404096
4.436,0.055492697821309264
4.438,0.06478529140402839
4.44,0.08817266738689694
4.442,0.023410154280897655
4.444,0.044976064826757825
4.446,0.03634568654244279
4.448,0.031503540361005986
4.45,0.0645418193950528
4.452,0.03045558231674055
4.454,0.0024914219347392033
4.456,0.0014423270392905224
4.458,0.02731849653966198
4.46,-0.02029449748720303
4.462,-0.0405391474450497
4.464,-0.021652879197875334
4.466,-0.010789109759108684
4.468,-0.051031226777289815
4.47,-0.03173773842464001
4.472,-0.002463291239802795
4.474,-0.04568491172951905
4.476,-0.048197284587484956
4.478,0.0034319559847904094
4.48,0.025886932450335805
4.482,0.035977281954545304
4.484,0.06516416409170485
4.486,0.050712806368476276
4.488,0.12161362344166718
4.49,0.13272304520530104
4.492,0.15415914686078186
4.494,0.22019225227569933
4.496,0.23308083627088913
4.498,0.32025621854751685
4.5,0.36296251667066753
4.502,0.3843324223471609
4.5040000000000004,0.4707127701257437
4.506,0.5106996896802098
4.508,0.5514475096970914
4.51,0.6130578474817152
4.5120000000000005,0.6800324819961624
4.514,0.7350000978654967
4.516,0.759117451134792
4.518,0.8196314458416079
4.5200000000000005,0.837751970749853
4.522,0.8746476295226739
4.524,0.9592421566435073
4.526,0.9609639065583971
4.5280000000000005,0.950985928789451
4.53,1.0002133516775786
4.532,1.0428003484279156
4.534,1.047915640747931
4.5360000000000005,1.0361325920268372
4.538,0.995088974945704
4.54,1.0184173590512309
4.542,0.9881531638994977
4.5440000000000005,0.9603144046290716
4.546,0.9466494526368172
4.548,0.9062254806425759
4.55,0.9060871417089164
4.5520000000000005,0.8547008324781811
4.554,0.8092009369879289
4.556,0.7936497628456125
4.558,0.707526067148276
4.5600000000000005,0.6869869617993652
4.562,0.6555168669511972
4.564,0.5825279432418123
4.566,0.5367564523797613
4.5680000000000005,0.4895245122751126
4.57,0.44721349526865006
4.572,0.41699313175985825
4.574,0.377409415564371
4.5760000000000005,0.3070925123102727
4.578,0.28529222060734283
4.58,0.24132525979009486
4.582,0.2189982821520644
4.5840000000000005,0.19649694481153507
4.586,0.13964472305323258
4.588,0.12011814579640478
4.59,0.0896281219174598
4.5920000000000005,0.11333071686210358
4.594,0.06407518396896181
4.596,0.07080687669351535
4.598,0.08077349079928335
4.6000000000000005,0.023874469619270255
4.602,0.04304637725889785
4.604,0.04746838643331487
4.606,0.023190576541997226
4.6080000000000005,0.02307136395831916
4.61,0.06515278996667741
4.612,0.024594991984348474
4.614,0.05583688777158759
4.616,-0.015074671824166046
4.618,-0.005078443896107555
4.62,0.022630628299367274
4.622,0.044853969085734774
4.624,-0.00032861860622446573
4.626,0.0727979715371038
4.628,0.0427809165261754
4.63,0.0521883201051266
4.632,0.052769308179006574
4.634,0.08647452847927437
4.636,0.027365557520132297
4.638,0.04875067224914803
4.64,0.055504800671290516
4.642,0.02157468047451673
4.644,-0.0022118888426004724
4.646,0.004972159416126782
4.648,0.07367612252557941
4.65,-0.0009056704375579166
4.652,0.045912564508045046
4.654,0.09434487568153353
4.656,0.0711655263917846
4.658,0.053912698546104955
4.66,0.06323367701831979
4.662,0.06510909248920017
4.664,0.04085023169065691
4.666,0.04098963039021854
4.668,0.015483031460373956
4.67,0.06498017867575596
4.672,0.09459414914755962
4.674,0.03356859275888797
4.676,0.034282506727204544
4.678,0.03677728380219943
4.68,0.07355245356869218
4.682,0.07212270603341182
4.684,0.05417623021579674
4.686,0.008233456531148653
4.688,0.04186063750594588
4.69,0.027047926853543243
4.692,0.030182523718180972
4.694,0.015945369799152002
4.696,0.07659303635814942
4.698,0.039463093102374586
4.7,0.04221051943675255
4.702,0.03200468955939614
4.704,0.033055264428619925
4.706,0.02488191092725237
4.708,0.018509589232223667
4.71,0.030489601821790266
4.712,0.028830838332357507
4.714,0.05446735452827082
4.716,0.051390812349172664
4.718,0.059174391381143644
4.72,0.06310157618348339
4.722,0.027212091545979096
4.724,0.012936605700436827
4.726,0.033389682047109036
4.728,0.039922638371015694
4.73,-0.0018779631388384233
4.732,0.005489543841592423
4.734,0.06924676648186205
4.736,0.04257086431322092
4.738,0.02898723280515404
4.74,0.037203532449640225
4.742,0.06454732599126041
4.744,0.010930213386833336
4.746,0.011990400855973141
4.748,0.041696180983246775
4.75,-0.009157590803855337
4.752,0.014554255782480192
4.7540000000000004,0.010497224488117485
4.756,0.038454631014534835
4.758,0.04288507945679555
4.76,0.020007851188055724
4.7620000000000005,0.021234604531944715
4.764,0.005929291252209826
4.766,0.022260285738984698
4.768,0.022199321362354377
4.7700000000000005,-0.0016056676600964097
4.772,0.014821915483058279
4.774,0.0006488674099303059
4.776,0.014322018154813834
4.7780000000000005,0.011359189014515526
4.78,0.01639825721055644
4.782,0.024036857967155094
4.784,0.014452947907141096
4.7860000000000005,-0.03023095751395554
4.788,0.015456166069849557
4.79,-0.018198575812502837
4.792,-0.00853272388256919
4.7940000000000005,-0.0005524877714922286
4.796,0.016819988667925313
4.798,-0.011674811916697031
4.8,-0.0016959998231037068
4.8020000000000005,-0.042652593402622146
4.804,-0.06801301590780898
4.806,-0.054350778118009424
4.808,-0.02086051751001032
4.8100000000000005,-0.04172984441351904
4.812,-0.04936513660700437
4.814,-0.03692451763038499
4.816,-0.04019139356179269
4.8180000000000005,-0.05458920626998778
4.82,-0.09339451134471491
4.822,-0.07906851572468071
4.824,-0.042277019399735646
4.8260000000000005,-0.05429761125960881
4.828,-0.08381784856676536
4.83,-0.07288081293279694
4.832,-0.03882483109572185
4.8340000000000005,-0.05703196573514961
4.836,-0.07230074849073809
4.838,-0.10950891809550618
4.84,-0.059167611616856935
4.8420000000000005,-0.08045425445899546
4.844,-0.05883442034879201
4.846,-0.07717269951326611
4.848,-0.07223266260028631
4.8500000000000005,-0.06798155876300976
4.852,-0.07395609307144344
4.854,-0.06502559641937546
4.856,-0.057423170457649136
4.8580000000000005,-0.10316045817531416
4.86,-0.1405583255323495
4.862,-0.1399350417759911
4.864,-0.13658745755952267
4.866,-0.11235293999944798
4.868,-0.10086489244568832
4.87,-0.10305035808799216
4.872,-0.11960720438996136
4.874,-0.13256624867436842
4.876,-0.11983596807231463
4.878,-0.09716962968130591
4.88,-0.09482489138889388
4.882,-0.10951513526050592
4.884,-0.13392638610134505
4.886,-0.13958152405924598
4.888,-0.13999683244922004
4.89,-0.13222337977013507
4.892,-0.1520165203909364
4.894,-0.10914451919685024
4.896,-0.1516064517955435
4.898,-0.11208744785524007
4.9,-0.1540768246733064
4.902,-0.12496604107632951
4.904,-0.15796777412592963
4.906,-0.12841325709226215
4.908,-0.09950116954725641
4.91,-0.11979409032543707
4.912,-0.11109454763167892
4.914,-0.11461320227609743
4.916,-0.08398116319221874
4.918,-0.14219320996164672
4.92,-0.15640779033406457
4.922,-0.11818396759890304
4.924,-0.12717475970909045
4.926,-0.13769029335327862
4.928,-0.10012583587516824
4.93,-0.08897173670177247
4.932,-0.12874065704384108
4.934,-0.09635711025412233
4.936,-0.0862935818192903
4.938,-0.08416268140886246
4.94,-0.07335648589409416
4.942,-0.08228520606738621
4.944,-0.05248536004925561
4.946,-0.0881609284250088
4.948,-0.07522072177805157
4.95,-0.09512581058338543
4.952,-0.09596109106371267
4.954,-0.08143670057094812
4.956,-0.05890751365098981
4.958,-0.09049761971928269
4.96,-0.10617248703379838
4.962,-0.07138455888796648
4.964,-0.10159611863645826
4.966,-0.037868033565886694
4.968,-0.012623484527649442
4.97,-0.03382574453466858
4.972,-0.08297927356193335
4.974,-0.05440247353306021
4.976,-0.03584443397114501
4.978,-0.009369945843452267
4.98,-0.05840629074576706
4.982,-0.003721879630909003
4.984,-0.03428189375039353
4.986,-0.023893960688676597
4.988,-0.0011386743412209153
4.99,-0.05772650781269584
4.992,-0.007637945352529152
4.994,-0.02472797399702875
4.996,0.00687905398271486
4.998,-0.05073776269069327
5.0,-0.007212683337229733
5.002,0.0013457921424160184
5.0040000000000004,-0.04061968729476821
5.006,-0.0013626508084682715
5.008,-0.016421391993632663
5.01,0.004615635222548042
5.0120000000000005,-0.0072530439904993915
5.014,0.017895127208831116
5.016,-0.02831543350034665
5.018,0.02378019446380128
5.0200000000000005,-0.03163321364816925
5.022,-0.00468745470175177
5.024,0.01855486230363556
5.026,-0.0012402681664415724
5.0280000000000005,-0.025490459331286984
5.03,0.009828934813512302
5.032,-0.02595825382388172
5.034,0.00993016262741788
5.0360000000000005,-0.013855410711324328
5.038,0.006858459472984439
5.04,0.0015319589826750441
5.042,-0.01127361349188355
5.0440000000000005,0.026838255972215633
5.046,-0.016362295191101953
5.048,-0.042598896717068506
5.05,-0.012148480142230474
5.0520000000000005,-0.00737549705051479
5.054,-0.005252314091330591
5.056,-0.0051888951552228856
5.058,-0.025976419118230044
5.0600000000000005,-0.026545564769493813
5.062,-0.027941568294335917
5.064,-0.025858211499140794
5.066,0.00010081716407453066
5.0680000000000005,0.0011725080745427767
5.07,-0.026365390559953114
5.072,0.021421531504124954
5.074,-0.015435997931603565
5.0760000000000005,-0.0411634174368017
5.078,-0.01207090887376101
5.08,0.028217767438370938
5.082,-0.014258065173876686
5.0840000000000005,-0.025606726690623693
5.086,0.016750471141851343
5.088,-0.04218562817900661
5.09,-0.012055963416841101
5.0920000000000005,0.006777774468668685
5.094,0.015168056745086594
5.096,-0.0405126604775768
5.098,-0.03811805140934548
5.1000000000000005,-0.005064108224110398
5.102,0.00447961802629332
5.104,-0.029496160714681866
5.106,0.02797455355078627
5.1080000000000005,-0.008633659744873087
5.11,-0.034976013477382134
5.112,-0.009566082927961251
5.114,-0.02405470767798824
5.1160000000000005,-0.023142719193907223
5.118,0.005374193030591071
5.12,-0.028960593955046732
5.122,0.0064754351482000354
5.124,0.0012323923285894483
5.126,0.014474110872251561
5.128,-0.021455764650932095
5.13,-0.02097957823223865
5.132,0.01092678700858389
5.134,-0.07346229416432049
5.136,0.04283733404131548
5.138,-0.00883009154456391
5.14,-0.054270661050093046
5.142,-0.007525930237531281
5.144,-0.023686741914494595
5.146,-0.03652177058053866
5.148,0.0214741854536591
5.15,-0.002465032541419703
5.152,-0.013073543840095974
5.154,-0.01943156547722131
5.156,-0.03277891900914724
5.158,-0.04485520915627978
5.16,-0.03774445828654352
5.162,-0.005160209137097362
5.164,0.00414813749035446
5.166,0.021278301400513254
5.168,0.007925847701626824
5.17,-0.027224667446177797
5.172,0.0059415364230195715
5.174,-0.013770276678118334
5.176,0.015983690887836962
5.178,-0.034064011398169294
5.18,0.025560498979798313
5.182,0.017477954284726403
5.184,0.016698935832594627
5.186,-0.009418254340331299
5.188,0.00793747186128417
5.19,-0.018750751219108436
5.192,0.05722806579334158
5.194,-0.016585550800094377
5.196,0.026658846863114167
5.198,0.0061898533269592534
5.2,0.009531876223327823
5.202,0.03369863042811517
5.204,0.03643644071327223
5.206,0.03104725718502218
5.208,0.043599881508562484
5.21,0.0003429545141734741
5.212,0.02774670288070174
5.214,0.041079963425411294
5.216,0.041488515784614995
5.218,0.05772118251091134
5.22,0.03276941258625092
5.222,0.05007541417878535
5.224,0.038665510101631814
5.226,0.08895964883444675
5.228,0.06972163273509097
5.23,0.08287769053979802
5.232,0.056182338233705796
5.234,0.06634041860606965
5.236,0.0562102207276507
5.238,0.042550470492334014
5.24,0.06351840359155156
5.242,0.059830237128012345
5.244,0.043397483196191994
5.246,0.05010376357965103
5.248,0.06876785083338423
5.25,0.03282380451125087
5.252,0.08198504006641677
5.2540000000000004,0.06866726830559489
5.256,0.04202188811477681
5.258,0.06032666802338248
5.26,0.026395616392509792
5.2620000000000005,0.0716140253056955
5.264,0.02010496196903698
5.266,0.025679741645947364
5.268,0.052461561973078503
5.2700000000000005,0.05617928321594094
5.272,0.012850112577597106
5.274,0.021450742298354128
5.276,0.034429916507854666
5.2780000000000005,-0.037100886870399835
5.28,0.0036540754387555316
5.282,0.006963020012093243
5.284,0.04560511906221284
5.2860000000000005,-0.0031772898446396913
5.288,0.03445096997780971
5.29,-0.00618802094613681
5.292,-0.016425407870019365
5.2940000000000005,0.02653030487469294
5.296,-0.02156963962885385
5.298,-0.006223801329021415
5.3,-0.04412734957866486
5.3020000000000005,-0.015164692074506885
5.304,-0.06537125329091655
5.306,-0.07559567483797991
5.308,-0.08357714695947556
5.3100000000000005,-0.09063955989523542
5.312,-0.06782298685078675
5.314,-0.06984317650750121
5.316,-0.11676336772759122
5.3180000000000005,-0.1250761638176322
5.32,-0.1177421565109757
5.322,-0.09104904225869298
5.324,-0.10762149932397404
5.3260000000000005,-0.10337385873615364
5.328,-0.14389943407196046
5.33,-0.11886299340019996
5.332,-0.08908631362601702
5.3340000000000005,-0.10024757350671694
5.336,-0.09483858364415229
5.338,-0.0499782088721272
5.34,-0.08870382615957051
5.3420000000000005,-0.08265713676353749
5.344,0.012147646686505729
5.346,-0.007739633020826392
5.348,0.031763006684451305
5.3500000000000005,0.09732488169531382
5.352,0.1258745899110819
5.354,0.17202645075345582
5.356,0.20152026581604396
5.3580000000000005,0.2449688347270411
5.36,0.3142001262115991
5.362,0.36206620149138435
5.364,0.42825513508960533
5.3660000000000005,0.4628549006136176
5.368,0.5244069999429385
5.37,0.5977626928956477
5.372,0.6045898997606403
5.3740000000000006,0.6419511563100119
5.376,0.7032344236201757
5.378,0.7584069880467377
5.38,0.8258597589474752
5.382,0.8585520945250629
5.384,0.8761486445438698
5.386,0.90090431309804
5.388,0.9199293895170347
5.39,0.9219455603259278
5.392,0.9454064459215042
5.394,0.9363683476515816
5.396,0.9193369864801113
5.398,0.9175881907189758
5.4,0.9006104183421543
5.402,0.8651660320858596
5.404,0.8801370260285968
5.406,0.8422130202534521
5.408,0.7770453714021358
5.41,0.7654220181640786
5.412,0.7128474021597251
5.414,0.6517559759233209
5.416,0.6189695993478636
5.418,0.5619352730566395
5.42,0.5048090436489893
5.422,0.4534544591698976
5.424,0.42266083605234195
5.426,0.38761368788841427
5.428,0.32465930668862386
5.43,0.27454212683243856
5.432,0.2387846321424595
5.434,0.20086203252961757
5.436,0.17680632949147473
5.438,0.08825599061617881
5.44,0.13103619223961105
5.442,0.08452695205322078
5.444,0.03521494457999455
5.446,0.019326989894314486
5.448,-0.006499971539558287
5.45,-0.0013760589322648342
5.452,-0.042438175174606116
5.454,-0.055200545434909445
5.456,-0.05976986727121403
5.458,-0.10821619848022182
5.46,-0.05369996557309753
5.462,-0.04934918501588589
5.464,-0.059276300814800315
5.466,-0.09793719602912979
5.468,-0.06816407258798782
5.47,-0.07895665411033517
5.472,-0.0816695873243234
5.474,-0.08231861191707798
5.476,-0.04376855876271625
5.478,-0.07337998001875437
5.48,-0.017901099852594703
5.482,-0.06802253250867764
5.484,-0.037234736567895305
5.486,-0.08676907542261576
5.488,-0.07578638059684542
5.49,-0.021557528954115536
5.492,-0.04343135658625122
5.494,-0.06201810906109304
5.496,-0.09436057561883641
5.498,-0.051172090551901986
5.5,-0.08718752701892613
5.502,-0.043304021260975725
5.5040000000000004,-0.07009086746461136
5.506,-0.08330037469185858
5.508,-0.04503597339792879
5.51,-0.06729628154973613
5.5120000000000005,-0.09191861661819359
5.514,-0.08767388925322343
5.516,-0.03401362668941806
5.518,-0.07921863556426578
5.5200000000000005,-0.04290350060199565
5.522,-0.045234944875715215
5.524,-0.07613284565263662
5.526,-0.08731685333063408
5.5280000000000005,-0.03947217936314525
5.53,-0.05474572588130512
5.532,-0.03771607214328094
5.534,-0.058013292319453624
5.5360000000000005,-0.04580081302989421
5.538,-0.023792076856042527
5.54,-0.05365727964538227
5.542,-0.061067058247277005
5.5440000000000005,-0.04507170897283606
5.546,-0.03622761325542607
5.548,-0.048296072196277906
5.55,-0.03766318729837605
5.5520000000000005,-0.07325491199173342
5.554,-0.04701123133551372
5.556,-0.014642897862174924
5.558,-0.025347361540617144
5.5600000000000005,-0.023576621601103746
5.562,-0.007714761424600751
5.564,-0.06557832154322545
5.566,-0.03751775167801834
5.5680000000000005,-0.05584253096983826
5.57,-0.026852386496610217
5.572,-0.043488568646707665
5.574,-0.06902052077668669
5.5760000000000005,-0.0575443559374635
5.578,-0.033543508666349066
5.58,-0.08673197944674287
5.582,-0.05541097696538955
5.5840000000000005,-0.060732732246141514
5.586,-0.02882278850325189
5.588,-0.009488071714504335
5.59,-0.07708585977666618
5.5920000000000005,-0.042586518942394125
5.594,-0.04246055586689469
5.596,-0.050262713374139824
5.598,-0.03507905843095006
5.6000000000000005,-0.04417423591585593
5.602,-0.09931245641472003
5.604,-0.01715576490902463
5.606,-0.07894142862279117
5.6080000000000005,-0.05638328361542225
5.61,-0.07010715871734186
5.612,-0.045114643258034076
5.614,-0.03850641051526389
5.6160000000000005,-0.04373539030177063
5.618,-0.05055218800388699
5.62,-0.07608514170276623
5.622,-0.05241534500285182
5.6240000000000006,-0.08056820146044028
5.626,-0.07411933775364211
5.628,-0.07615932881050902
5.63,-0.11472914859483617
5.632,-0.09525302228158622
5.634,-0.07882483728117831
5.636,-0.08559392050687913
5.638,-0.06096134245382947
5.64,-0.06530910952394645
5.642,-0.0678878445850192
5.644,-0.047597122488639905
5.646,-0.10540181699643451
5.648,-0.06810382318285561
5.65,-0.08803382397280134
5.652,-0.07685377696266489
5.654,-0.11555608138585508
5.656,-0.07462656262272754
5.658,-0.10065407733588516
5.66,-0.10413315319736202
5.662,-0.10317255465608137
5.664,-0.09345384682528671
5.666,-0.1079090051636432
5.668,-0.13142406724753258
5.67,-0.10854663705046158
5.672,-0.14352833363264547
5.674,-0.07251860672924433
5.676,-0.1358076926910738
5.678,-0.128277913534317
5.68,-0.17050529060099012
5.682,-0.15622758914348917
5.684,-0.14330046988538803
5.686,-0.16495502812570179
5.688,-0.11022255760002705
5.69,-0.1320761629258228
5.692,-0.15195307941673367
5.694,-0.15922690133620818
5.696,-0.13503757221085536
5.698,-0.1168501413523367
5.7,-0.17287902441713016
5.702,-0.15150919020124534
5.704,-0.19277409655928623
5.706,-0.14838684142475192
5.708,-0.17129875241647635
5.71,-0.1538005931967283
5.712,-0.16905923587177343
5.714,-0.18467207309610767
5.716,-0.2130158442803018
5.718,-0.15815385692909315
5.72,-0.15894149519099052
5.722,-0.20261821244500772
5.724,-0.1581272129352215
5.726,-0.20254355959239273
5.728,-0.19264791938779535
5.73,-0.1410462967546545
5.732,-0.19655879123610331
5.734,-0.20258967041223946
5.736,-0.15433104843759238
5.738,-0.1468814149774128
5.74,-0.15926055808522604
5.742,-0.18485615902633484
5.744,-0.1900042649153885
5.746,-0.19653044339061207
5.748,-0.16080597910609887
5.75,-0.19385691180548065
5.752,-0.1793785239498149
5.7540000000000004,-0.1732918741059935
5.756,-0.1674725885849418
5.758,-0.20363400283157074
5.76,-0.17808536667124922
5.7620000000000005,-0.16415560437392906
5.764,-0.16707098833374853
5.766,-0.21669075156865353
5.768,-0.15310557110026413
5.7700000000000005,-0.15773312421076896
5.772,-0.1146557946224535
5.774,-0.15793016707105959
5.776,-0.10915128329142701
5.7780000000000005,-0.16327511691016622
5.78,-0.1452640943849843
5.782,-0.12498260362644867
5.784,-0.15761699676534274
5.7860000000000005,-0.14705657437997624
5.788,-0.1263624462756162
5.79,-0.1464912046139466
5.792,-0.12409666584579625
5.7940000000000005,-0.09724792932727186
5.796,-0.14865542547108213
5.798,-0.13530660380925788
5.8,-0.10779136407430229
5.8020000000000005,-0.10647492936659879
5.804,-0.10622843757289652
5.806,-0.11467121186697818
5.808,-0.0927157370572158
5.8100000000000005,-0.11707354519494434
5.812,-0.08833741514578464
5.814,-0.08388399564184888
5.816,-0.10325922116581704
5.8180000000000005,-0.0911952488439656
5.82,-0.09628337194407091
5.822,-0.10449502534187266
5.824,-0.04309720918831347
5.8260000000000005,-0.10188505574238445
5.828,-0.08650807995116845
5.83,-0.09786740478721095
5.832,-0.09238781992879627
5.8340000000000005,-0.07796032919320806
5.836,-0.06430033270280837
5.838,-0.05693501967251732
5.84,-0.06910023608867885
5.8420000000000005,-0.07105620930619934
5.844,-0.04452414892949072
5.846,-0.07107276935302213
5.848,-0.07376035673783343
5.8500000000000005,-0.036453625707506425
5.852,-0.047351558668774205
5.854,-0.015138726480303188
5.856,-0.056377420857260774
5.8580000000000005,-0.05447417990854919
5.86,-0.06376052793468652
5.862,-0.04578375040786012
5.864,-0.015527372644380638
5.8660000000000005,-0.03929942242475406
5.868,-0.029796171512458544
5.87,-0.023934284151544374
5.872,-0.055580928282826195
5.8740000000000006,-0.020220424764706854
5.876,-0.010093433634085465
5.878,-0.024189589774948558
5.88,-0.01572983482593221
5.882000000000001,-0.013306088987611485
5.884,-0.013045721286368345
5.886,-0.0033228387301015797
5.888,-0.022141947795855297
5.89,-0.03115072642236608
5.892,-0.02353400131868208
5.894,-0.014666379143872418
5.896,-0.033716798534546934
5.898,-0.044180072042827576
5.9,-0.02858100349728761
5.902,-0.024337300332777617
5.904,-0.006589620053159966
5.906,-0.0028146687465191284
5.908,-0.02699580683955571
5.91,-0.024905718589903335
5.912,-0.04346630391817389
5.914,0.006734922643024146
5.916,0.018613231458850455
5.918,-0.03948644922986219
5.92,-0.024261780256769217
5.922,0.0019591640093825145
5.924,0.012506576254428248
5.926,-0.06362225029620051
5.928,-0.03508689125009348
5.93,-0.006569002571873465
5.932,0.018828268104461324
5.934,-0.05058781896430668
5.936,-0.04211756297354812
5.938,-0.007385995780142653
5.94,-0.008239165822525499
5.942,-0.012963774074372297
5.944,-0.0013043202435359701
5.946,0.009875017582170725
5.948,0.010280815157891376
5.95,0.010869891073288613
5.952,-0.031042059513139156
5.954,0.011388573676826799
5.956,-0.00635233752474969
5.958,-0.02039591582261299
5.96,-0.0025409356418113547
5.962,-0.008747442236791685
5.964,-0.017401569721124877
5.966,0.005164296103844576
5.968,-0.04053659247612249
5.97,0.00249220174783066
5.972,-0.034296886038381255
5.974,-0.018369007624299907
5.976,-0.04736357124848503
5.978,0.02040626054968095
5.98,-0.028982821411857155
5.982,-0.012627270391543753
5.984,-0.014576407698858658
5.986,-0.0034642495558535676
5.988,-4.3102948512633814e-05
5.99,-0.005103711036100647
5.992,0.021874128024155948
5.994,0.0015288731038016186
5.996,0.014844269490620425
5.998,-0.005326791699508637
6.0,-0.010942472455670038
6.002,0.04551257689646006
6.0040000000000004,-0.011507265708201951
6.006,-0.0006935269706187081
6.008,-0.00673677609594675
6.01,0.009350683749132407
6.0120000000000005,0.013763805811439286
6.014,0.005240672386678457
6.016,-0.010781046173638245
6.018,0.013219269892921697
6.0200000000000005,0.00029122272224705887
6.022,0.007990982078442677
6.024,0.0436101176479768
6.026,-0.03451137573318852
6.0280000000000005,0.02872659837002619
6.03,0.00444323430913335
6.032,0.06480232610239883
6.034,0.006658693790236987
6.0360000000000005,0.015080535300393586
6.038,0.0205272748511429
6.04,0.04862045611922679
6.042,-0.0036786736014900803
6.0440000000000005,0.05848197329232271
6.046,0.024390717066927258
6.048,0.016681377191624616
6.05,0.038722307684797695
6.0520000000000005,0.06002422963805758
6.054,0.06406593646564292
6.056,0.02422644441470012
6.058,0.06349623690313635
6.0600000000000005,0.07361807723114246
6.062,0.07995207057168012
6.064,0.05385787147850078
6.066,0.061525890539070344
6.0680000000000005,0.05448919814045568
6.07,0.07850927562773496
6.072,0.05354140808856892
6.074,0.08270754812974537
6.0760000000000005,0.12215797601136902
6.078,0.07566702982035527
6.08,0.1275737590542717
6.082,0.07649366603019168
6.0840000000000005,0.12484585931774653
6.086,0.10923771885014064
6.088,0.09118161660442846
6.09,0.0860652640130532
6.0920000000000005,0.12240386500649633
6.094,0.126389223615739
6.096,0.1526161691104382
6.098,0.11288975176107771
6.1000000000000005,0.11242185279494539
6.102,0.15464806743167192
6.104,0.1286612875291348
6.106,0.1494247207099464
6.1080000000000005,0.13896584716790264
6.11,0.12749175778625785
6.112,0.15447874308620804
6.114,0.1292383030309051
6.1160000000000005,0.13673571088208614
6.118,0.07850505060456436
6.12,0.10800416367084413
6.122,0.0976734757309831
6.1240000000000006,0.11854589986074486
6.126,0.06624758505564805
6.128,0.0764576418422111
6.13,0.08651219594247941
6.132000000000001,0.09867650311028646
6.134,0.10789138159208471
6.136,0.07321987704437018
6.138,0.07671087259605586
6.140000000000001,0.07464869549985882
6.142,0.0372169393008228
6.144,0.07709221174087927
6.146,0.0643779337349496
6.148,0.07388145475287097
6.15,0.041225685903621426
6.152,0.01982356384936781
6.154,0.009698441827121465
6.156,0.0018564107332651632
6.158,0.01577641782474595
6.16,-2.2652861851858285e-05
6.162,0.019017057869811366
6.164,0.03513689198561314
6.166,-0.004035121240849277
6.168,-0.0004106733862916101
6.17,-0.034797304672963346
6.172,-0.015213853503017773
6.174,-0.05490734601879169
6.176,-0.024504177248865174
6.178,-0.02541140556913194
6.18,-0.07613287234012295
6.182,-0.035750461293858796
6.184,-0.03935282508991053
6.186,-0.048131864113684
6.188,-0.0267818356442344
6.19,-0.010460686104533115
6.192,-0.023654331041524528
6.194,-0.01691049311330914
6.196,-0.01060519591670546
6.198,-0.011797682392436174
6.2,0.03855071908909422
6.202,0.07116335659851092
6.204,0.13099707990208637
6.206,0.14487574411057716
6.208,0.1734374645871084
6.21,0.2221821832286739
6.212,0.27686449205156066
6.214,0.30405907715368574
6.216,0.379659977555584
6.218,0.4122905198079864
6.22,0.4642388984137453
6.222,0.5383625763513085
6.224,0.5891915379259969
6.226,0.6134389827539728
6.228,0.6589723389933158
6.23,0.7118478991643188
6.232,0.7798444914526423
6.234,0.8244002191038207
6.236,0.8777220140173594
6.238,0.9154627317603687
6.24,0.9877556517007282
6.242,0.9496513345578519
6.244,0.9677576701143765
6.246,0.9955144990476184
6.248,1.0087470016697235
6.25,1.0546508284479275
6.252,1.0214283568575642
6.2540000000000004,1.0092098682991952
6.256,1.001337717641662
6.258,0.9784704284940419
6.26,0.9413976851565217
6.2620000000000005,0.9420504218376806
6.264,0.8917883640673604
6.266,0.8594318146095785
6.268,0.7906187132402859
6.2700000000000005,0.7606537828929227
6.272,0.7429426655163727
6.274,0.6600814221257305
6.276,0.6279990672740207
6.2780000000000005,0.6169655503333507
6.28,0.524600646640742
6.282,0.49591506875923014
6.284,0.4563003439716858
6.2860000000000005,0.4016778458686982
6.288,0.35628440361334723
6.29,0.33552736841491415
6.292,0.2749957616669557
6.2940000000000005,0.28568887987742575
6.296,0.18812648902579715
6.298,0.16892465999971013
6.3,0.1463999895769521
6.3020000000000005,0.11246047831293557
6.304,0.11573414228803644
6.306,0.08735822166786872
6.308,0.07073582998794214
6.3100000000000005,0.07427628401507652
6.312,0.057988075026554696
6.314,0.06605083412520762
6.316,0.05401827220563468
6.3180000000000005,0.02399877081124082
6.32,0.019930920593565403
6.322,0.013241512072919792
6.324,0.04294078501538334
6.3260000000000005,0.00024263211757355116
6.328,0.004995718510820375
6.33,0.046825089210243254
6.332,0.04351911725233933
6.3340000000000005,0.06610510286448894
6.336,0.0544257176836592
6.338,0.054899350536217244
6.34,0.016251431536505746
6.3420000000000005,0.03382785296996846
6.344,0.05948778937140225
6.346,0.021146715754071364
6.348,0.017092795990064403
6.3500000000000005,0.053642691122135974
6.352,0.02804047632705423
6.354,0.0012717480616201036
6.356,0.05716177323324297
6.3580000000000005,0.0558046641759391
6.36,0.029523067791185277
6.362,0.0536449148081307
6.364,0.05393031527297272
6.3660000000000005,0.024916942546849015
6.368,0.02674733804205199
6.37,0.06729700544950495
6.372,0.06963794517652501
6.3740000000000006,0.06770033690056818
6.376,0.03812105336007996
6.378,0.0795706581065563
6.38,0.046784408151829944
6.382000000000001,0.05101794114460364
6.384,0.019144788188527703
6.386,0.05083659764612032
6.388,0.02632529061649656
6.390000000000001,0.03362063688839174
6.392,0.04579344566566503
6.394,0.06320746580834387
6.396,0.014228049309038808
6.398000000000001,0.06360167245845948
6.4,0.04523722897201598
6.402,0.047546318097433406
6.404,0.05099726657990222
6.406,0.03362609825354707
6.408,0.04504340159571632
6.41,0.05109439650587797
6.412,0.04143455553131124
6.414,0.07648888519262861
6.416,0.023702982500167964
6.418,0.052475479981965154
6.42,0.06064714258967923
6.422,0.024380826533081334
6.424,0.024372785371180407
6.426,0.05900370881383721
6.428,0.032851055679376635
6.43,0.06367353092678346
6.432,0.03572255098756664
6.434,0.007729975348244763
6.436,0.03775997774060109
6.438,0.06156502422306281
6.44,0.06886155488207574
6.442,0.06177980414493536
6.444,0.018633474552723614
6.446,0.06852810062466141
6.448,0.06946645494191912
6.45,0.060584623184439
6.452,0.08486819349667381
6.454,0.05098944455900863
6.456,0.02600172268040383
6.458,0.05756478447421686
6.46,0.050276470518635076
6.462,0.04276233904170865
6.464,0.08520160085079519
6.466,0.02972048792045636
6.468,0.05010574249550133
6.47,0.04254302327865425
6.472,0.036198913430734315
6.474,0.06067228733724565
6.476,0.03344344749125158
6.478,0.039533921948838924
6.48,0.013206369365487674
6.482,0.05897402835361012
6.484,0.0369109617618439
6.486,0.029680133253140267
6.488,0.004567196412073465
6.49,0.03747358504650307
6.492,0.06096468719473239
6.494,0.01825133811933795
6.496,0.031125357406893914
6.498,-0.0066115164429395995
6.5,0.012129839686728296
6.502,0.03588824687629513
6.5040000000000004,0.038437228010301694
6.506,-0.019147667416766927
6.508,0.021999411147541857
6.51,0.020687722109666865
6.5120000000000005,-0.0067663196458703015
6.514,-0.006421571411107316
6.516,0.030412204533887648
6.518,-0.011568501082481475
6.5200000000000005,0.008439819097416451
6.522,-0.011288891783063679
6.524,-0.008345087270321024
6.526,-0.0383064053160048
6.5280000000000005,-0.0317388611635394
6.53,0.0037037104987031333
6.532,-0.03191175698867244
6.534,-0.07218827641216644
6.5360000000000005,-0.04615261915227621
6.538,-0.026267908012243227
6.54,-0.03686563054545006
6.542,-0.04166650694533759
6.5440000000000005,-0.060413728418289514
6.546,-0.10863381970357686
6.548,-0.025311234403005187
6.55,-0.02538364291981411
6.5520000000000005,-0.056274492456348704
6.554,-0.06593926789067836
6.556,-0.10131152255780845
6.558,-0.05234341975181703
6.5600000000000005,-0.06309341029413172
6.562,-0.09092818304948505
6.564,-0.08267671012404842
6.566,-0.07923490123334964
6.5680000000000005,-0.08161464549996855
6.57,-0.10073239523149731
6.572,-0.08764452347298912
6.574,-0.0924469292944612
6.5760000000000005,-0.06542385528095998
6.578,-0.09322832587920862
6.58,-0.10877324836756036
6.582,-0.11608853396221201
6.5840000000000005,-0.08602603610203706
6.586,-0.09392121274771217
6.588,-0.07158062069791579
6.59,-0.07752673925103569
6.5920000000000005,-0.09297724404904431
6.594,-0.07638905500952634
6.596,-0.07946924354503743
6.598,-0.09434935512650655
6.6000000000000005,-0.13793165663469326
6.602,-0.10267031955766531
6.604,-0.10806315949055592
6.606,-0.12184310415831316
6.6080000000000005,-0.09307247267847334
6.61,-0.0752933435598085
6.612,-0.13570678526077512
6.614,-0.09843854214310765
6.6160000000000005,-0.08663431864674384
6.618,-0.057699178278515395
6.62,-0.08917825784608532
6.622,-0.09743453998539547
6.6240000000000006,-0.15648848476802105
6.626,-0.0844297363212723
6.628,-0.1025288918509714
6.63,-0.07604717057914274
6.632000000000001,-0.05922533106009245
6.634,-0.07160871485493027
6.636,-0.09595105176056201
6.638,-0.08791301109210686
6.640000000000001,-0.049595662729698856
6.642,-0.02937680539112973
6.644,-0.05744978632443649
6.646,-0.06908466820449533
6.648000000000001,-0.08296691910000284
6.65,-0.049987542392096074
6.652,-0.04996309907882644
6.654,-0.03905738129629454
6.656000000000001,-0.021743549338933174
6.658,-0.04345966341085563
6.66,-0.059948679363511274
6.662,-0.06971027929407503
6.664,0.005277771316430535
6.666,-0.041034769002845424
6.668,-0.03172816130578104
6.67,-0.04125238971013925
6.672,-0.0505477400504626
6.674,-0.032103347049615163
6.676,-0.011363590482661098
6.678,-0.01816056831009704
6.68,-0.02139916880859212
6.682,-0.0036247422071383
6.684,-0.004045472638246339
6.686,-0.0008646577398944491
6.688,-0.00787636211765292
6.69,0.019920202843332326
6.692,-0.00018660163140041264
6.694,0.014671952319495904
6.696,0.011229079191099
6.698,0.0222591997421799
6.7,0.00707332687687192
6.702,-0.0022722229397626297
6.704,-0.00033490504610515434
6.706,0.027298661603300172
6.708,0.006265258041413688
6.71,0.01764647860231698
6.712,0.055193494427012685
6.714,0.005473601160330726
6.716,0.010900627216629724
6.718,0.0440843890416939
6.72,-0.0001289139961120414
6.722,0.06294028349368437
6.724,0.0033875060058204346
6.726,0.05774979802454651
6.728,0.03948874078984824
6.73,0.012700866163900057
6.732,-0.007866859669094088
6.734,0.033469447558399736
6.736,0.05408409447218217
6.738,0.040841464813600396
6.74,0.010618731744528124
6.742,0.025388723491469797
6.744,0.012574803993280138
6.746,-0.025516225397279386
6.748,0.04345171415376854
6.75,0.04991190124569696
6.752,0.07504107520832491
6.7540000000000004,0.02972364727312741
6.756,0.04398893868753782
6.758,0.03329912175583811
6.76,0.055634949437876946
6.7620000000000005,0.03472763848730789
6.764,-0.0019523023003948725
6.766,0.028692128031362993
6.768,0.004791302860252945
6.7700000000000005,0.07621896911815225
6.772,0.04313362769988673
6.774,0.014677866316786012
6.776,0.01976008379949184
6.7780000000000005,0.020571925015880344
6.78,0.06016004427867421
6.782,0.0667348325158161
6.784,0.038583789328541326
6.7860000000000005,0.037126133305875414
6.788,0.019917795767062402
6.79,0.07063561257759907
6.792,-0.006490434849860892
6.7940000000000005,0.022188874377369477
6.796,0.028424951933015526
6.798,0.029009694167346167
6.8,0.008677855819105764
6.8020000000000005,0.07775535056036068
6.804,0.04118266345262134
6.806,0.008096649326770547
6.808,0.04106795972701798
6.8100000000000005,0.017399552735401853
6.812,0.042770303656393074
6.814,0.02453186765021634
6.816,0.02378993753329796
6.8180000000000005,0.03919750263921716
6.82,0.04415981640926819
6.822,-0.002931777047129292
6.824,0.007261611980060535
6.8260000000000005,0.027530694707022005
6.828,0.039092358450686426
6.83,0.023035710886931477
6.832,0.0405325928412593
6.8340000000000005,0.02809380159838976
6.836,0.038867739249287665
6.838,0.02920143347473403
6.84,0.017098318937485393
6.8420000000000005,0.05923094777250951
6.844,0.006698574011109815
6.846,0.02824126953489723
6.848,0.003082654947006873
6.8500000000000005,0.05622359252924767
6.852,0.023922968217135063
6.854,0.06129151230599464
6.856,0.00015577662309302937
6.8580000000000005,0.030463315519420945
6.86,0.029512052769575532
6.862,0.03814635194314805
6.864,0.03192603441830425
6.8660000000000005,0.013215346274441412
6.868,0.031906054323771305
6.87,0.05197068493445204
6.872,0.02038127407218007
6.8740000000000006,0.01770833004278871
6.876,-0.015211537939477703
6.878,0.030804901778102974
6.88,0.0021667887693546974
6.882000000000001,0.04095696588498182
6.884,0.015639975744443743
6.886,0.015165521047206145
6.888,0.03641259723211117
6.890000000000001,0.04079676646797658
6.892,0.03348334412917056
6.894,0.007688781661609034
6.896,0.05745540417745349
6.898000000000001,0.0926052130161253
6.9,0.04806597115480098
6.902,0.067593486347956
6.904,0.030289401038147163
6.906000000000001,0.06610755409793015
6.908,0.08182940601936181
6.91,0.06489470060209634
6.912,0.09814145036992274
6.914,0.0711125697311066
6.916,0.06567731442926265
6.918,0.05707143530409753
6.92,0.06589292803143883
6.922,0.11225323723017533
6.924,0.06716817145923082
6.926,0.07193771969712509
6.928,0.11560490464214956
6.93,0.06682343281932578
6.932,0.07554164299261532
6.934,0.08784703045254934
6.936,0.08837157693347915
6.938,0.09651248201953508
6.94,0.11764332556324489
6.942,0.1014178310355256
6.944,0.08941204339523137
6.946,0.1263677840918622
6.948,0.0938909018707544
6.95,0.0742114609295833
6.952,0.151468294817743
6.954,0.09390903224575989
6.956,0.11079435186788916
6.958,0.10131931616528043
6.96,0.13108904800673374
6.962,0.09827856463763718
6.964,0.09994151507021756
6.966,0.1198822948671446
6.968,0.10433830301486732
6.97,0.05484452064701435
6.972,0.10191631589733456
6.974,0.08562610638869016
6.976,0.13956044729126016
6.978,0.07722870936946225
6.98,0.11210638526562791
6.982,0.06593499894033103
6.984,0.05102801776150211
6.986,0.05561037743272658
6.988,0.08723450866043062
6.99,0.07126767070886145
6.992,0.054023472305820455
6.994,0.04187758627877289
6.996,0.046408147394764114
6.998,0.04351361139313781
7.0,0.01893372020056661
7.002,0.014139490205528162
7.0040000000000004,0.004155767610867733
7.006,0.012714734885113894
7.008,0.023285479955105493
7.01,0.03341782543864115
7.0120000000000005,0.034827383909878495
7.014,0.0006674611861350477
7.016,0.006816718206688232
7.018,0.005502664577129064
7.0200000000000005,-0.03154181847823977
7.022,-0.0310079268982552
7.024,-0.05612231339264506
7.026,-0.01496538348960081
7.0280000000000005,-0.0665511503760032
7.03,-0.03371840469664254
7.032,-0.054202952994246316
7.034,-0.07145542793008265
7.0360000000000005,-0.061284445132470375
7.038,-0.09018612626330216
7.04,-0.08190649260444124
7.042,-0.11401950590753504
7.0440000000000005,-0.08525888569204107
7.046,-0.10526724698109696
7.048,-0.035423338233379134
7.05,-0.05491726607524353
7.0520000000000005,-0.015186501858714695
7.054,-0.03919934331587956
7.056,-0.06005235393554344
7.058,0.004907204702692663
7.0600000000000005,0.026661484697596678
7.062,0.10085657290552522
7.064,0.12838675954988454
7.066,0.15793221240241012
7.0680000000000005,0.1969518421828198
7.07,0.2415777477878823
7.072,0.2935832214157041
7.074,0.35552720485100703
7.0760000000000005,0.40317455792219126
7.078,0.4398800313397308
7.08,0.5205871223654794
7.082,0.5808114246756958
7.0840000000000005,0.6146391300162096
7.086,0.6570939003137931
7.088,0.7157641039235727
7.09,0.7774174231211798
7.0920000000000005,0.8131093546405891
7.094,0.8371914737024037
7.096,0.8983382707363231
7.098,0.9010768863390403
7.1000000000000005,0.9254103421531349
7.102,0.9277350053476116
7.104,0.9400207421830586
7.106,0.9512670044183977
7.1080000000000005,0.9583310990210901
7.11,0.9714664339699653
7.112,0.9284855332721178
7.114,0.9504930936541115
7.1160000000000005,0.9244221942341135
7.118,0.8490421148287727
7.12,0.8514087634459852
7.122,0.8145513421375058
7.1240000000000006,0.7840699145159965
7.126,0.7384532063010755
7.128,0.7084053387379567
7.13,0.658098513519781
7.132000000000001,0.630632246048937
7.134,0.5655979158327955
7.136,0.5126085563836336
7.138,0.440323124047604
7.140000000000001,0.39514299416747956
7.142,0.3794098808468088
7.144,0.3414341942232962
7.146,0.29252921577872093
7.148000000000001,0.2750224077383488
7.15,0.18932884744719733
7.152,0.1472786871678856
7.154,0.09464965092118362
7.156000000000001,0.05445967574395308
7.158,0.07785049550376898
7.16,0.034033707734441906
7.162,0.006252266245789881
7.164000000000001,0.030550326748221578
7.166,0.015975703234631832
7.168,-0.04457941653510037
7.17,-0.01177273479039152
7.172,-0.0462270645328171
7.174,-0.033878479735158784
7.176,-0.06261332833363689
7.178,-0.07916884578582674
7.18,-0.05040638613044175
7.182,-0.04137482586505585
7.184,-0.06402400588179688
7.186,-0.05998709233148852
7.188,-0.04552529658274974
7.19,-0.02892595603018399
7.192,-0.0533514961431405
7.194,-0.027490978677024384
7.196,-0.06288645225267768
7.198,-0.06263090025489092
7.2,-0.02580786593309921
7.202,-0.06580189011242658
7.204,-0.013914152333553986
7.206,-0.05226724802485038
7.208,-0.05343043347309903
7.21,-0.02546547373325829
7.212,-0.050991718440248884
7.214,-0.019308545289032496
7.216,-0.02387235839017036
7.218,-0.06856731090145327
7.22,-0.05783219126675096
7.222,-0.03834498968661993
7.224,-0.01058287400921018
7.226,-0.05169276502707884
7.228,-0.058094095661334014
7.23,-0.02434315978843653
7.232,-0.020107637297121377
7.234,-0.019168346780253122
7.236,-0.03251680604969766
7.238,-0.020081910623426433
7.24,-0.038635210818413195
7.242,-0.00955649225199369
7.244,-0.060224954355864946
7.246,-0.013873564266766137
7.248,-0.019836510584885607
7.25,0.00030424593080557376
7.252,0.008211995792945622
7.2540000000000004,-0.04145473443762943
7.256,-0.041387294377781034
7.258,-0.021254283873030966
7.26,-0.0466377922486587
7.2620000000000005,-0.05972997495794309
7.264,-0.0066546391753328615
7.266,-0.04066393249909099
7.268,-0.08378915254770015
7.2700000000000005,-0.055872848098591
7.272,-0.03622841715783594
7.274,-0.06105389360725699
7.276,-0.01739102543573769
7.2780000000000005,-0.01963516159348085
7.28,-0.024383655844141948
7.282,-0.04474985331279573
7.284,-0.036017149747601666
7.2860000000000005,0.008836022854208963
7.288,-0.07603593850367997
7.29,-0.051165498188860875
7.292,-0.024787676111030343
7.2940000000000005,-0.04859390310009729
7.296,-0.016428267081401035
7.298,-0.04692559945004946
7.3,-0.04179835655288809
7.3020000000000005,-0.08709211865562029
7.304,-0.06101144115074
7.306,-0.049006220847323416
7.308,-0.03765724843586791
7.3100000000000005,-0.05160270197641132
7.312,-0.038035570785772486
7.314,-0.05003968088080582
7.316,-0.039112889128091126
7.3180000000000005,-0.08677406553461295
7.32,-0.036746653011764774
7.322,-0.059380095892266005
7.324,-0.018799997038074022
7.3260000000000005,-0.08321981312024276
7.328,-0.04215247878090271
7.33,-0.07158726377688018
7.332,-0.046140943272869994
7.3340000000000005,-0.05239967698741839
7.336,-0.03905561883057992
7.338,-0.03158952306826784
7.34,-0.058478809231217115
7.3420000000000005,-0.09734666028313649
7.344,-0.07008780011922594
7.346,-0.06761094439971499
7.348,-0.07060867136919012
7.3500000000000005,-0.09747780953838685
7.352,-0.060487377864424416
7.354,-0.09350117947846755
7.356,-0.08525847900561268
7.3580000000000005,-0.03783683869701248
7.36,-0.10258188334684122
7.362,-0.05395979801237766
7.364,-0.13141694148938657
7.3660000000000005,-0.08981892322143299
7.368,-0.09557245034496803
7.37,-0.08991188010417538
7.372,-0.08477898248588475
7.3740000000000006,-0.11137177839114898
7.376,-0.09237015730914633
7.378,-0.06120294402058086
7.38,-0.11487099729022315
7.382000000000001,-0.10691643456956323
7.384,-0.12855857817289076
7.386,-0.11293883666595564
7.388,-0.10149483878227249
7.390000000000001,-0.12330688584360824
7.392,-0.1602994545583385
7.394,-0.11984748001109083
7.396,-0.15202241573697806
7.398000000000001,-0.22387701707333554
7.4,-0.12334687771976541
7.402,-0.14539513615069305
7.404,-0.13883640043617276
7.406000000000001,-0.16219352223194067
7.408,-0.14251149525012885
7.41,-0.16933277632446922
7.412,-0.17662621167354842
7.414000000000001,-0.16076490937876572
7.416,-0.18897588819391967
7.418,-0.15350700776377732
7.42,-0.1566885928301004
7.422000000000001,-0.19320221469972476
7.424,-0.18100312887639514
7.426,-0.17380640645497808
7.428,-0.15576471044480344
7.43,-0.21170296448478299
7.432,-0.172594295832607
7.434,-0.21771590825234904
7.436,-0.18454038127822076
7.438,-0.1865266223876623
7.44,-0.19175498167629804
7.442,-0.2082956019520428
7.444,-0.18151920294949253
7.446,-0.2237970474772954
7.448,-0.1927962927439999
7.45,-0.21643041498645715
7.452,-0.18707787993538072
7.454,-0.18569245832544654
7.456,-0.19258935875273941
7.458,-0.22009024950013883
7.46,-0.19271470495075904
7.462,-0.22163195456871237
7.464,-0.19804552465959946
7.466,-0.2032434143933823
7.468,-0.18254007790080864
7.47,-0.1553758537379986
7.472,-0.18682584148058176
7.474,-0.22020129570127114
7.476,-0.1922199841911132
7.478,-0.17839610373735218
7.48,-0.14218343641648906
7.482,-0.1925558182437433
7.484,-0.2115462653972935
7.486,-0.18830901066010475
7.488,-0.1873471840229339
7.49,-0.2130474220044306
7.492,-0.15845105579771945
7.494,-0.14698446990268085
7.496,-0.1427256105719166
7.498,-0.15883564673237766
7.5,-0.14872083002648914
7.502,-0.18118158116523214
7.5040000000000004,-0.17968903613377024
7.506,-0.1571885458419891
7.508,-0.1854140446753667
7.51,-0.1392930243484708
7.5120000000000005,-0.17035225327987605
7.514,-0.16182102610801438
7.516,-0.13729291790718787
7.518,-0.14609587988844905
7.5200000000000005,-0.15206058972710285
7.522,-0.1147160404709425
7.524,-0.08803020097968753
7.526,-0.12156188306207392
7.5280000000000005,-0.1411210854268165
7.53,-0.11337048151578191
7.532,-0.13150796252433095
7.534,-0.11006636266075658
7.5360000000000005,-0.10528327005201607
7.538,-0.09715595470656493
7.54,-0.08341457206735114
7.542,-0.07223493033086051
7.5440000000000005,-0.09946344234393259
7.546,-0.07492892883485294
7.548,-0.10828146281648382
7.55,-0.13346513382781264
7.5520000000000005,-0.052352767980613335
7.554,-0.10280525589415032
7.556,-0.12629631022507382
7.558,-0.0665848016362099
7.5600000000000005,-0.07698989881133611
7.562,-0.05872448362074252
7.564,-0.06563459161686869
7.566,-0.07732696584424475
7.5680000000000005,-0.04878644633862003
7.57,-0.0914641956317444
7.572,-0.06855391911977893
7.574,-0.11209930148320664
7.5760000000000005,-0.06868243262368366
7.578,-0.07633138194450122
7.58,-0.08077726047019991
7.582,-0.03350748021719533
7.5840000000000005,-0.06882388968420224
7.586,-0.06527194879932419
7.588,-0.04249937831222393
7.59,-0.055267730731302936
7.5920000000000005,-0.04181998701094901
7.594,-0.06395456654522468
7.596,-0.028261428802851818
7.598,-0.056967431292971424
7.6000000000000005,-0.042251647065812414
7.602,-0.05384438550455751
7.604,-0.02114335233976979
7.606,-0.0565247183156457
7.6080000000000005,-0.05176961277090262
7.61,-0.06559854336627927
7.612,-0.05595771546842207
7.614,-0.06113331329318556
7.6160000000000005,-0.02567401143130574
7.618,-0.06245333194579414
7.62,-0.10527862047036941
7.622,-0.03692980608287794
7.6240000000000006,-0.024668649194750668
7.626,-0.05944608408187423
7.628,-0.030047002545852415
7.63,-0.05384772789734382
7.632000000000001,-0.009207985067996671
7.634,-0.02593427117939019
7.636,-0.05297398427030414
7.638,-0.018648824263180666
7.640000000000001,-0.005449396957225054
7.642,-0.023207854461574633
7.644,-0.07197962012425162
7.646,-0.0352651986595469
7.648000000000001,-0.028219287644843497
7.65,-0.050664029088986526
7.652,-0.05323652221464976
7.654,-0.06407679753074538
7.656000000000001,-0.0218163685689323
7.658,-0.04767249675100687
7.66,-0.019550114451284645
7.662,-0.021008663248631237
7.664000000000001,-0.050435840664358425
7.666,-0.03420156320775776
7.668,-0.01223607163148807
7.67,-0.049028258997893696
7.672000000000001,-0.033036115864421206
7.674,-0.0673185050103668
7.676,-0.04816747908379423
7.678,-0.0691951423335529
7.68,-0.05129924381588228
7.682,-0.03799192950252444
7.684,-0.023284263854820197
7.686,-0.056444219077729736
7.688,-0.02932730984715119
7.69,-0.04142095265414643
7.692,-0.039279831244545566
7.694,-0.015071511287904512
7.696,-0.00742644989837438
7.698,-0.044723057470508185
7.7,-0.04613126265408219
7.702,-0.03773318657902309
7.704,-0.042890572753283125
7.706,-0.003502469175088531
7.708,-0.07310222688397332
7.71,-0.050415873522058056
7.712,-0.05493332783084825
7.714,-0.04536139624654167
7.716,-0.02950518215970269
7.718,-0.042103633805286395
7.72,-0.0258905428708481
7.722,-0.027426001357796128
7.724,-0.020441591250037475
7.726,-0.027370803948444235
7.728,-0.016271907953916
7.73,-0.00010986690094111351
7.732,-0.02849271490288708
7.734,-0.0054088735731769415
7.736,-0.021113584652310564
7.738,-0.014114505295765039
7.74,-0.010310012462367433
7.742,-0.028403340928350652
7.744,-0.01751867383073966
7.746,-0.03728490027869031
7.748,-0.015129040324754841
7.75,-0.03288144618778817
7.752,0.014370848305071005
7.7540000000000004,-0.01061704218265204
7.756,0.005603490490600875
7.758,0.006254936920889541
7.76,-0.01594121313389819
7.7620000000000005,-0.0010542470460876974
7.764,0.021945348361998514
7.766,0.03204465429252297
7.768,0.036877497807262155
7.7700000000000005,0.006569319803900825
7.772,-0.00863671552710657
7.774,0.03570651933477524
7.776,0.0010877284944760812
7.7780000000000005,0.0076252278263928275
7.78,0.048021637701999895
7.782,0.008407329236184508
7.784,0.03671646279670775
7.7860000000000005,0.049614475642712166
7.788,0.04886664103474274
7.79,0.08387135206144969
7.792,0.032820211899680596
7.7940000000000005,0.09123553710466445
7.796,0.07043965517551742
7.798,0.06401938051720905
7.8,0.0813952121024784
7.8020000000000005,0.02206247629476682
7.804,0.08409093226343504
7.806,0.06893386415145676
7.808,0.07323579489236613
7.8100000000000005,0.05109233174785688
7.812,0.0682204606703328
7.814,0.06463949526953959
7.816,0.07635857127610945
7.8180000000000005,0.11074773109645555
7.82,0.07396668057188874
7.822,0.10660244599832033
7.824,0.08210818590587701
7.8260000000000005,0.11088515145308629
7.828,0.054905349886552386
7.83,0.057108754723601426
7.832,0.059139930546224365
7.8340000000000005,0.09770242878871616
7.836,0.034037672636996225
7.838,0.007690108709182561
7.84,0.04434039497010832
7.8420000000000005,0.05749538277320808
7.844,0.06009822659962871
7.846,0.0190151530200358
7.848,0.029862754662224267
7.8500000000000005,0.06601768858891385
7.852,0.04021632163794218
7.854,0.029193116111007337
7.856,0.03985417514401186
7.8580000000000005,0.04112696023053418
7.86,0.010337761539130276
7.862,0.037236378902127776
7.864,0.005703000936349335
7.8660000000000005,-0.052105279623410855
7.868,0.019821950885802703
7.87,-0.036301140523961335
7.872,-0.02271884915816009
7.8740000000000006,0.015544954300171263
7.876,-0.024077094378029115
7.878,-0.028731158254380256
7.88,-0.05466153911358671
7.882000000000001,-0.07085629041905245
7.884,-0.06586108404237517
7.886,-0.08549038216455206
7.888,-0.09593666654612992
7.890000000000001,-0.07138990074075797
7.892,-0.08443687845274384
7.894,-0.09741546284762938
7.896,-0.08811959794763086
7.898000000000001,-0.11832574810094554
7.9,-0.08477480688073537
7.902,-0.0748479966834984
7.904,-0.04057512644769258
7.906000000000001,-0.043494613403599856
7.908,-0.05259809266058438
7.91,-0.0638396725454487
7.912,-0.06189834923656655
7.914000000000001,-0.0023017257822297715
7.916,0.004409329997525045
7.918,0.056381147214553715
7.92,0.0884697160508334
7.922000000000001,0.10071265771432544
7.924,0.1822017029491152
7.926,0.21615266021552004
7.928,0.22753477307321174
7.930000000000001,0.2920892963457146
7.932,0.3456805948805833
7.934,0.4161666605287396
7.936,0.47855855969371686
7.938,0.5297011242453873
7.94,0.5918873156532108
7.942,0.6497371545394798
7.944,0.6724373909490158
7.946,0.7367465457937363
7.948,0.7958368372173125
7.95,0.8205817544351791
7.952,0.8350365621519334
7.954,0.9228081523166107
7.956,0.8675024375338241
7.958,0.9595404528965598
7.96,0.929344474037664
7.962,0.9355471520516186
7.964,0.9701265841930731
7.966,0.9892505346200886
7.968,0.9656169600066982
7.97,0.9220942585150774
7.972,0.9093121322143418
7.974,0.9547820321832654
7.976,0.8829977469591065
7.978,0.8517971703963699
7.98,0.8116194061884946
7.982,0.7735060971242537
7.984,0.7421180521753918
7.986,0.6852477270063597
7.988,0.6405270631994602
7.99,0.5902773945381998
7.992,0.5545957467180653
7.994,0.5218412831354583
7.996,0.4567774077409524
7.998,0.41689120719901085
8.0,0.3790348617319785
8.002,0.3036882712001389
8.004,0.2532942403701649
8.006,0.2842681192036929
8.008000000000001,0.2085307551266241
8.01,0.16734989475473316
8.012,0.13891994094390572
8.014,0.11815600597121353
8.016,0.05516821178106355
8.018,0.07255911869813826
8.02,0.09618287011639681
8.022,0.05044399380418234
8.024000000000001,0.04818254716010509
8.026,0.012951398806927823
8.028,-0.014633342650182454
8.03,-0.023796869202706593
8.032,-0.05706085953377217
8.034,-0.02244141548321189
8.036,-0.017454382525702992
8.038,-0.0317274177334722
8.040000000000001,-0.019493041029939352
8.042,-0.020626865259317055
8.044,-0.008546543695416365
8.046,-0.03433353556874452
8.048,0.014533960176545676
8.05,-0.010107812703739682
8.052,-0.013632657750890034
8.054,-0.002915227331004272
8.056000000000001,-0.005578171709967225
8.058,-0.017984310394402098
8.06,-0.018550934088413774
8.062,0.05849697663027714
8.064,0.005171921442524205
8.066,0.014963098119499224
8.068,0.013287807108018584
8.07,0.02410250725281487
8.072000000000001,0.027730097943617915
8.074,0.005226773150953853
8.076,0.027402121196182492
8.078,0.015004329063028145
8.08,0.04301790113468553
8.082,0.05046749372905286
8.084,0.011508658094922927
8.086,0.00968516242644209
8.088000000000001,-0.012624746097376491
8.09,-0.009171626444425077
8.092,-0.002707960869445563
8.094,0.009960068004492915
8.096,0.010199650071582468
8.098,-0.014225966016781203
8.1,-0.008047331461548842
8.102,0.03648801786161867
8.104000000000001,-0.006580732988495067
8.106,-0.004898056981879284
8.108,0.024393419038506874
8.11,0.020592101919555433
8.112,-0.0026168507151965777
8.114,0.019622419072119493
8.116,-0.00010177713000083301
8.118,0.0666566055452467
8.120000000000001,0.025460953761217285
8.122,0.005261406586425209
8.124,0.005846253844539781
8.126,0.008032044089988949
8.128,0.022139126009889862
8.13,0.021928113086361556
8.132,0.030274816845077997
8.134,0.05206454558575243
8.136000000000001,0.027323443863835898
8.138,0.024867368046715077
8.14,0.014349402355220729
8.142,0.013580173338528536
8.144,0.05524631299685663
8.146,0.03434941745460314
8.148,0.033990126327335765
8.15,0.029936751520255687
8.152000000000001,-0.01008332552405669
8.154,0.02863272244693113
8.156,0.0310041862228502
8.158,0.01414469539537747
8.16,-0.007232755680822531
8.162,0.009327281353643508
8.164,0.024416709348538974
8.166,0.024734178496697585
8.168000000000001,0.05644273131583247
8.17,0.03502506099308779
8.172,0.03574541373401779
8.174,0.023282283769226267
8.176,0.05487558607541828
8.178,0.017429339918360306
8.18,0.00355440675916913
8.182,0.003688101095287794
8.184000000000001,0.0070332944306898525
8.186,-0.006280623724885158
8.188,0.025588455284731644
8.19,0.014463457240993896
