time,ecg
0.0,-0.006227734975388893
0.002,-0.025607440317357056
0.004,0.025157168733065487
0.006,0.012511152160519125
0.008,-0.005989612250274853
0.01,-0.005865454281262779
0.012,0.005168079955464399
0.014,0.018825221919119953
0.016,0.004681135222267284
0.018000000000000002,0.03227855763069707
0.02,0.015902711508265038
0.022,0.025118517937584052
0.024,0.03670784511415914
0.026000000000000002,-0.01820692613337975
0.028,0.015584983368047397
0.03,0.03928475817700258
0.032,-0.0027505376432432616
0.034,0.0465257634916898
0.036000000000000004,0.034579599453576
0.038,0.030548143029062506
0.04,0.03266142129841865
0.042,0.04666384229433429
0.044,0.041721076632828535
0.046,0.08424770435834678
0.048,0.010444339386931678
0.05,0.06402047432811327
0.052000000000000005,0.06959987287389541
0.054,0.05837477827791887
0.056,0.0632819172714903
0.058,0.09383700943774001
0.06,0.06445843220623404
0.062,0.04298012382686691
0.064,0.08568296505907065
0.066,0.08878448301695438
0.068,0.03816149036375545
0.07,0.07264478326367937
0.07200000000000001,0.07217816050874817
0.074,0.10952002860844033
0.076,0.07323405636136213
0.078,0.11755490633696572
0.08,0.1036956615447985
0.082,0.09461745950317375
0.084,0.08966978430536446
0.08600000000000001,0.10317818333324028
0.088,0.0876462118804318
0.09,0.10172650443713253
0.092,0.11946141911774247
0.094,0.09488312419215833
0.096,0.12106222697815791
0.098,0.09781956267585658
0.1,0.10459412695587095
0.10200000000000001,0.10109852285651877
0.10400000000000001,0.11974204530099404
0.106,0.09858496524520963
0.108,0.11278726721853836
0.11,0.10300529147638908
0.112,0.14100177460623717
0.114,0.11820826504748352
0.116,0.11004242318287545
0.11800000000000001,0.12375635780131143
0.12,0.08693671951688056
0.122,0.10461722897216708
0.124,0.11168248166222217
0.126,0.11296043499187747
0.128,0.11661483037151525
0.13,0.10202272546090549
0.132,0.061383340306692236
0.134,0.0728248018252336
0.136,0.09444116871246652
0.138,0.075096673859875
0.14,0.08769421965203228
0.14200000000000002,0.046074902960799025
0.14400000000000002,0.07544461540026387
0.146,0.065687939341036
0.148,0.028271725409169335
0.15,0.03674471272705801
0.152,0.03509749630305555
0.154,0.04802228113917284
0.156,0.029360053364984103
0.158,-0.0037612298588915677
0.16,0.0178360995149886
0.162,-0.015622865217997965
0.164,-0.007706569057525035
0.166,0.016775935249956204
0.168,-0.011411710484152862
0.17,-0.030922803875295557
0.17200000000000001,-0.05844597659190144
0.17400000000000002,-0.054017554406623716
0.176,-0.047877290176746724
0.178,-0.02648205005349008
0.18,-0.04460700192465753
0.182,-0.05119731719986732
0.184,-0.04627036525090734
0.186,-0.03819876185063341
0.188,-0.06562196843294789
0.19,-0.010165835954937225
0.192,-0.004816849485692984
0.194,0.02572878112249294
0.196,-0.022865182117185526
0.198,0.0268428518538679
0.2,0.02760638198024879
0.202,0.08023821643399431
0.20400000000000001,0.08058710515391762
0.20600000000000002,0.12334620149045673
0.20800000000000002,0.18191862813626763
0.21,0.20461283193485197
0.212,0.25754603541702203
0.214,0.3001145777496478
0.216,0.35635728804109784
0.218,0.4509675742750272
0.22,0.46734375246627424
0.222,0.5516389071472341
0.224,0.6127185104154286
0.226,0.6522704928102111
0.228,0.6681142630205317
0.23,0.7713041220956262
0.232,0.779229435383192
0.234,0.859750820258069
0.23600000000000002,0.8706075015614866
0.23800000000000002,0.9212568136712951
0.24,0.9465357706044826
0.242,0.9341812280956898
0.244,1.0017665417308617
0.246,1.048991759196547
0.248,1.0133384538175298
0.25,1.015168901127762
0.252,0.9932486533226386
0.254,0.9698764495597134
0.256,1.0121689729167878
0.258,0.9925150458272379
0.26,0.9768012589932283
0.262,0.9009627631621515
0.264,0.8923212724914189
0.266,0.8174287230327559
0.268,0.803811221524346
0.27,0.8191735997563533
0.272,0.7760382070233355
0.274,0.6911653133573403
0.276,0.6233312820123447
0.278,0.6045755260092042
0.28,0.568992401691745
0.28200000000000003,0.46184701050362204
0.28400000000000003,0.43384420944602936
0.28600000000000003,0.39584826374660737
0.28800000000000003,0.3782508588180768
0.29,0.34367766801250543
0.292,0.2861551938951125
0.294,0.2362408281865353
0.296,0.18517369331960912
0.298,0.18224842402484148
0.3,0.17704044196201274
0.302,0.12909447396801854
0.304,0.11081958075346181
0.306,0.07667324455750185
0.308,0.08569963977954376
0.31,0.039368325716635816
0.312,0.016640404865741018
0.314,0.018815855100676696
0.316,0.028828469991796557
0.318,0.002353066543398426
0.32,-0.016839888110328147
0.322,0.03908648406073153
0.324,0.05058958917044089
0.326,0.021327655253429365
0.328,-0.02769272556479308
0.33,0.021646815162370766
0.332,0.02406324154193399
0.334,0.028673887038388447
0.336,0.0512403248457919
0.338,0.001188111221499576
0.34,0.004228061924885302
0.342,0.013395079689956504
0.34400000000000003,0.03880682444242649
0.34600000000000003,0.05218786660783305
0.34800000000000003,0.07363529119376801
0.35000000000000003,0.039521758989843406
0.352,0.07516190864629618
0.354,0.04050035463085334
0.356,0.06193516535994019
0.358,0.04453228360566153
0.36,0.008167686997726293
0.362,0.05860569991829306
0.364,0.044332132412208916
0.366,0.022381154755757054
0.368,0.030524050104698074
0.37,0.07148876318959807
0.372,0.04588899107315326
0.374,0.044147107049727415
0.376,0.08081157775272388
0.378,0.05066616868280361
0.38,0.05830312121068714
0.382,8.221841694265768e-05
0.384,0.06433437329044042
0.386,0.03210264897067846
0.388,0.048299623498548966
0.39,0.07026554060473779
0.392,0.043385907973458086
0.394,0.0382430480772427
0.396,0.0742052859899523
0.398,0.03972803318662875
0.4,0.07668880523285816
0.402,0.03211335265838682
0.404,0.02708277134152677
0.406,0.0538638532983521
0.40800000000000003,0.033727114345800585
0.41000000000000003,0.06957400817427387
0.41200000000000003,0.07213567618572708
0.41400000000000003,0.04477152497543671
0.41600000000000004,0.047993274305206696
0.418,0.041385348535618045
0.42,0.08146011456600996
0.422,0.03280274083155482
0.424,0.03766210484286565
0.426,0.03386914924220023
0.428,0.056927096023730514
0.43,0.061959157422400095
0.432,0.02939796693168905
0.434,0.08508028904372791
0.436,0.02593609046638768
0.438,0.036020599605095564
0.44,0.04277917910709498
0.442,0.029170520785912403
0.444,0.022277103728462384
0.446,0.05633266650501072
0.448,0.053440503540177466
0.45,0.06426240325810259
0.452,0.034134240556371556
0.454,0.06982098772506141
0.456,0.022495918408894117
0.458,0.0693706009304264
0.46,0.06306369319530057
0.462,0.057123384608297315
0.464,0.02341155401431825
0.466,0.0128460072583499
0.468,0.0612560498355279
0.47000000000000003,0.03443485948027878
0.47200000000000003,0.022690964256705852
0.47400000000000003,0.05744932319147725
0.47600000000000003,0.05158513926924984
0.47800000000000004,0.01617079319529539
0.48,0.008237774572602542
0.482,0.03077418712191477
0.484,0.0363298206094102
0.486,0.011148604793230904
0.488,-0.010540010774799644
0.49,0.03317042911868223
0.492,0.025153576120668084
0.494,-0.0023836790905599724
0.496,0.04897446065894902
0.498,0.060649173633112875
0.5,0.025451032643622896
0.502,0.01023823174986433
0.504,-0.004896034397052832
0.506,0.010342502047829792
0.508,-0.0031289321799162426
0.51,0.027671567816558156
0.512,0.037752685139963105
0.514,-0.016173027435710568
0.516,-0.01511757674164401
0.518,0.016799604987951154
0.52,-0.011184245787736136
0.522,-0.022841852187030533
0.524,-0.021788752400458355
0.526,0.011375368107373315
0.528,-0.04997083944357426
0.53,-0.04921125325690773
0.532,-0.04113104914226783
0.534,-0.03455579934927075
0.536,-0.03617053378242906
0.538,0.006996330923026303
0.54,-0.01610172836963686
0.542,-0.037847000079513894
0.544,-0.046690761971280144
0.546,-0.02759778744941284
0.548,-0.06192482306370989
0.55,-0.05347495714794192
0.552,-0.09152420662590266
0.554,-0.061343468499857196
0.556,-0.12174095021333003
0.558,-0.062023907572889635
0.56,-0.057415868714849806
0.562,-0.03764674936027729
0.5640000000000001,-0.09994418511099622
0.5660000000000001,-0.07013168311860399
0.5680000000000001,-0.11123124122634653
0.5700000000000001,-0.10803596276088298
0.5720000000000001,-0.09515510091857035
0.5740000000000001,-0.08254429624283177
0.5760000000000001,-0.08915656594644916
0.578,-0.07555961454329443
0.58,-0.07625227269544183
0.582,-0.10679851324123757
0.584,-0.1140963771147942
0.586,-0.10622311678797279
0.588,-0.11864258110736739
0.59,-0.08569611280428142
0.592,-0.12107557817945437
0.594,-0.13340703422226272
0.596,-0.11680405654167153
0.598,-0.09956482550358486
0.6,-0.11054872231297687
0.602,-0.11185487755140841
0.604,-0.128300587338223
0.606,-0.11687163598692471
0.608,-0.07268626460563862
0.61,-0.09890873577423087
0.612,-0.0824207639333837
0.614,-0.12690077032799862
0.616,-0.08413414100513086
0.618,-0.08816985647590768
0.62,-0.07550699086135701
0.622,-0.08523779514707064
0.624,-0.08055328472497651
0.626,-0.056917699244187964
0.628,-0.09019807140185435
0.63,-0.08150967632005932
0.632,-0.10366413691456633
0.634,-0.08949227088086556
0.636,-0.09019593321451513
0.638,-0.09647237658118128
0.64,-0.07476389672536768
0.642,-0.09230731298781819
0.644,-0.08932573600342252
0.646,-0.05948469497312645
0.648,-0.04155153036981646
0.65,-0.08404182201103486
0.652,-0.04529959822245227
0.654,-0.062004292139806017
0.656,-0.05151125630665654
0.658,-0.0301516255645133
0.66,-0.03825913073796286
0.662,-0.02871246067383934
0.664,-0.03689794184765138
0.666,-0.02367655972629759
0.668,-0.013959792064328583
0.67,-0.033486813553610204
0.672,-0.03708503398801717
0.674,-0.03600851635958055
0.676,-0.004366053273997007
0.678,-0.015446117450584211
0.68,0.008857075499280713
0.682,-0.005856554805168043
0.684,-0.022476807546362533
0.686,-0.02708077145434852
0.6880000000000001,-0.011903554756843897
0.6900000000000001,-0.00532787411044898
0.6920000000000001,0.017900731100009788
0.6940000000000001,0.022549918449000374
0.6960000000000001,-0.02567629380483686
0.6980000000000001,0.01368217560306486
0.7000000000000001,0.036706841197758175
0.7020000000000001,0.061667380214933176
0.704,0.026241965067157036
0.706,0.041755516849606725
0.708,0.0036884795806842556
0.71,-0.01735931929395227
0.712,-0.01753065092308027
0.714,0.03508293955343651
0.716,0.002512537550583116
0.718,0.012563856044799118
0.72,0.022447176842946247
0.722,0.006945056664945317
0.724,0.020492085290128213
0.726,-0.035351279951060764
0.728,0.04174498468135282
0.73,0.04326374050222776
0.732,0.027121190928422502
0.734,0.004158940456930854
0.736,0.05438388840523303
0.738,0.029571051641951278
0.74,0.04386762545209551
0.742,0.03494320297383545
0.744,0.05444743833410544
0.746,0.03816394396261618
0.748,0.051129765700826786
0.75,0.042197751681546214
0.752,0.04861119997042267
0.754,0.010778900640339654
0.756,0.02735888730979204
0.758,0.02283762619745761
0.76,0.005637488368265062
0.762,0.03298834023696232
0.764,0.009347303778813404
0.766,0.05448187044871875
0.768,0.029820118124122625
0.77,0.056206376865525716
0.772,0.024406594498640893
0.774,0.012647460519237052
0.776,0.07018590235744583
0.778,0.01913124860978477
0.78,0.03592963483545836
0.782,0.02092499768412028
0.784,0.0250359467221596
0.786,0.028997916597747187
0.788,0.020882298413576545
0.79,0.025344267486977785
0.792,0.01607845984607575
0.794,0.04313546853672291
0.796,0.06479452102076012
0.798,0.029415641237727243
0.8,-0.001806451395221376
0.802,-0.0043922888132736015
0.804,-0.024803521364041604
0.806,0.016250655338037486
0.808,0.038428879131461605
0.81,0.06606596816980373
0.812,0.01126039609808996
0.8140000000000001,0.04490714322030175
0.8160000000000001,0.04860058898692647
0.8180000000000001,0.022532282226081307
0.8200000000000001,-0.029739435601236465
0.8220000000000001,0.02170404265402167
0.8240000000000001,0.0398165576486894
0.8260000000000001,0.05246777551413756
0.8280000000000001,0.03979650331218685
0.8300000000000001,0.04025473885455901
0.8320000000000001,0.04870923369439529
0.834,0.002266442004233598
0.836,0.034418918886451155
0.838,0.02613385680395754
0.84,0.028121098254511843
0.842,0.03860705005689646
0.844,0.03591556942913122
0.846,0.04485711199684295
0.848,0.010634590551976205
0.85,0.019673246513005675
0.852,0.0050705679346793415
0.854,0.014079481711115616
0.856,-0.012396083937291741
0.858,-0.006876143737269481
0.86,-0.002814649498915545
0.862,0.04866497150792143
0.864,-0.0302335416750058
0.866,0.06194061495552292
0.868,-0.006604906369963224
0.87,0.032222599837502794
0.872,0.023967591900383552
0.874,0.0021937447956775482
0.876,0.010840004724562768
0.878,0.04624766671586404
0.88,0.0006478718783934443
0.882,0.014040680163053118
0.884,0.03347608556248619
0.886,0.030158472308578096
0.888,0.04241404173027537
0.89,0.05918310558637775
0.892,0.024235404714932282
0.894,0.0409092966634762
0.896,0.0006159238615500544
0.898,0.06306279532461895
0.9,0.03428711416990554
0.902,0.019695944388816788
0.904,0.024948222691254664
0.906,0.030374033953204753
0.908,0.07002864571715649
0.91,0.033316488237904944
0.912,0.03625422952785773
0.914,0.05860809622735073
0.916,0.07879182530765447
0.918,0.05195280262541717
0.92,0.047669201330571176
0.922,0.0859426147825723
0.924,0.06269469282152015
0.926,0.09436877257570636
0.928,0.0824594485071664
0.93,0.11362811151190971
0.932,0.09715812956449754
0.934,0.09680619427926473
0.936,0.12866137719404658
0.9380000000000001,0.12640117306430126
0.9400000000000001,0.15452378959690385
0.9420000000000001,0.12878533139439738
0.9440000000000001,0.047166087609965
0.9460000000000001,0.10410397882291503
0.9480000000000001,0.0853635320899071
0.9500000000000001,0.10054671964441028
0.9520000000000001,0.08446795157183662
0.9540000000000001,0.10274337914987489
0.9560000000000001,0.11698211193108925
0.9580000000000001,0.11491542051179951
0.96,0.09294605017624026
0.962,0.12183355677325777
0.964,0.08168818439017239
0.966,0.07344838200120103
0.968,0.11579611699872913
0.97,0.12114616276985957
0.972,0.10645175071959181
0.974,0.08958985540168152
0.976,0.08145124604851282
0.978,0.08150359042937215
0.98,0.060781053300494076
0.982,0.11955862231854629
0.984,0.07495611239981682
0.986,0.07007503229097435
0.988,0.08179448485784407
0.99,0.033114258831721186
0.992,0.07669791179629074
0.994,0.041249559538528276
0.996,0.04335765507678612
0.998,0.01763965772893427
1.0,0.052889595464458684
1.002,0.038797122298614324
1.004,0.04045044139728906
1.006,0.018355686962959306
1.008,0.0600057045044934
1.01,-0.034470823836268906
1.012,0.0017523673926933634
1.014,0.03700983179458937
1.016,-0.008205542571057926
1.018,-0.021922739157400842
1.02,0.016986460702954745
1.022,-0.05990334845878301
1.024,-0.0546669378027434
1.026,-0.027860920813348147
1.028,-0.05801762251292969
1.03,-0.08256021068106313
1.032,-0.049726009211842975
1.034,-0.11134975464470132
1.036,-0.09452682054856056
1.038,-0.09877630137713111
1.04,-0.09223781289106783
1.042,-0.08177328151731632
1.044,-0.08664966455917583
1.046,-0.08007062456249857
1.048,-0.08403201985712426
1.05,-0.052190697962184736
1.052,-0.061576722577351174
1.054,-0.01691519243502993
1.056,-0.032920717379420615
1.058,-0.01141445085974787
1.06,0.020969950946861285
1.062,0.08566070240731584
1.064,0.08335235448547229
1.066,0.13834970429705393
1.068,0.19493023643150434
1.07,0.25210725498867076
1.072,0.2964752700364372
1.074,0.34273723981189297
1.076,0.399906872193551
1.078,0.4408583008826829
1.08,0.5075293432033589
1.082,0.5859849991009836
1.084,0.6158170937711529
1.086,0.6548225270279276
1.088,0.7132362658005553
1.09,0.7614471708317493
1.092,0.790053579008855
1.094,0.8354945532463522
1.096,0.9166373607066303
1.098,0.8981190448428095
1.1,0.9235409608393135
1.102,0.9502735277594234
1.104,0.9550444706691399
1.106,0.945594811233979
1.108,0.9479992325853702
1.11,0.9881483472488093
1.112,0.9210636126855481
1.114,0.9824722366171237
1.116,0.9338343899866465
1.118,0.9000444061673849
1.12,0.8855865381929694
1.122,0.8237258837633905
1.124,0.8041642376418319
1.1260000000000001,0.7488426208147329
1.1280000000000001,0.7106494453390961
1.1300000000000001,0.6804377073712756
1.1320000000000001,0.5735812640943158
1.1340000000000001,0.5861285669549292
1.1360000000000001,0.5326494965914629
1.1380000000000001,0.44874164533952576
1.1400000000000001,0.41519446426773915
1.1420000000000001,0.37452670637836855
1.1440000000000001,0.31582271035938664
1.1460000000000001,0.3174977695677366
1.1480000000000001,0.22814652853601547
1.1500000000000001,0.24158794073055087
1.1520000000000001,0.13237713155960595
1.154,0.13416489423272956
1.156,0.11419616976652751
1.158,0.030996042820740338
1.16,0.05962572688829519
1.162,0.04576861755354509
1.164,0.02553410486071366
1.166,0.010920374204786943
1.168,-0.02090400947563567
1.17,-0.03638600885768923
1.172,-0.055093854211738506
1.174,-0.023628746161493276
1.176,-0.04729985054181209
1.178,-0.04659551506948388
1.18,-0.08433925707914516
1.182,-0.028168463866930758
1.184,-0.02015937741819187
1.186,-0.03766894196370483
1.188,-0.07367095067592122
1.19,-0.07026136144126024
1.192,-0.06272445064963253
1.194,-0.03547468963952112
1.196,-0.04892964113024312
1.198,-0.0568828985384671
1.2,-0.044017536331636326
1.202,-0.030448650161265696
1.204,-0.04148652884573092
1.206,-0.05045704233012248
1.208,-0.06097399347244403
1.21,-0.008016239146791001
1.212,-0.026092427619425818
1.214,-0.051697774152989366
1.216,-0.029694578143455597
1.218,-0.027620780819439646
1.22,-0.057155448713583926
1.222,-0.02237828744661875
1.224,-0.006855038041310477
1.226,0.006853924273824275
1.228,-0.03126747990058594
1.23,-0.05646226936765618
1.232,-0.07071449484219071
1.234,-0.036946209807613206
1.236,-0.02414007446096995
1.238,-0.015106480788909908
1.24,-0.015398695505416669
1.242,-0.06205855618670286
1.244,-0.0305029663707508
1.246,-0.039617096017921134
1.248,-0.023537749642632364
1.25,-0.013333646475102387
1.252,-0.03924293807860321
1.254,-0.05540958792490021
1.256,-0.015340474829737103
1.258,-0.061322272528988434
1.26,-0.018168314855086867
1.262,-0.024873559478879113
1.264,-0.050725702736886695
1.266,-0.03529691648596652
1.268,-0.03562278995501895
1.27,-0.0319445765988058
1.272,-0.0633043286734715
1.274,-0.07399176438579366
1.276,-0.04962184116748807
1.278,-0.030662397013756778
1.28,-0.060039808322012375
1.282,-0.031770213960309095
1.284,-0.025012888526652455
1.286,-0.029529377825551314
1.288,-0.0652887993365134
1.29,-0.06611361659997139
1.292,-0.04644724271186073
1.294,-0.0639672824154268
1.296,-0.07812970585539122
1.298,-0.031833650573262214
1.3,-0.06130835546404425
1.302,-0.045911531329053575
1.304,-0.04537666520587356
1.306,-0.07407397529712129
1.308,-0.022259082257302113
1.31,-0.06632251678488582
1.312,-0.043348435022475776
1.314,-0.05608655171604571
1.316,-0.03142735115490822
1.318,-0.046116790642198174
1.32,-0.031438848210030665
1.322,-0.06311120780067371
1.324,-0.03031110439803973
1.326,-0.02411540197188189
1.328,-0.06308552292832241
1.33,-0.047397722741275135
1.332,-0.06449824054086482
1.334,-0.04742814293523575
1.336,-0.013813651321670572
1.338,-0.02749430648456757
1.34,-0.046528918249616066
1.342,-0.0906063867776311
1.344,-0.09656864882837285
1.346,-0.043514509241661156
1.348,-0.06155939220983519
1.35,-0.1004454005263725
1.352,-0.061806590188362286
1.354,-0.07297056620123496
1.356,-0.0883513090823835
1.358,-0.09758387315824711
1.36,-0.06449785980437825
1.362,-0.08972493345290161
1.364,-0.08030862576571338
1.366,-0.05805704286697454
1.368,-0.08381783984431576
1.37,-0.08291086091345456
1.372,-0.05569546741057198
1.374,-0.10244471218797058
1.3760000000000001,-0.12820551090293117
1.3780000000000001,-0.12908432083777724
1.3800000000000001,-0.08838794382295814
1.3820000000000001,-0.07350163333065371
1.3840000000000001,-0.09283730065483531
1.3860000000000001,-0.15406375657180416
1.3880000000000001,-0.12579264783717384
1.3900000000000001,-0.12729083381873266
1.3920000000000001,-0.12766513428630585
1.3940000000000001,-0.13167603124356622
1.3960000000000001,-0.13419497422270285
1.3980000000000001,-0.14327824268775985
1.4000000000000001,-0.1458152444955429
1.4020000000000001,-0.16700874129727045
1.4040000000000001,-0.148033271137008
1.4060000000000001,-0.1391191344365139
1.408,-0.1282700955842826
1.41,-0.18441228786419567
1.412,-0.15735424420474742
1.414,-0.14482928672380738
1.416,-0.16183944964886265
1.418,-0.18055569405934402
1.42,-0.17675956210184937
1.422,-0.15241125704260325
1.424,-0.1783474960969436
1.426,-0.1659390848441374
1.428,-0.17061724287049282
1.43,-0.2126065399604178
1.432,-0.16206249344821888
1.434,-0.20603484430106317
1.436,-0.18114779571543976
1.438,-0.20275376256335792
1.44,-0.22255927889230462
1.442,-0.2248285243218487
1.444,-0.1920761413149544
1.446,-0.1659752795173938
1.448,-0.18831802793691613
1.45,-0.20255227603224193
1.452,-0.21411017379200023
1.454,-0.1775654365129052
1.456,-0.20497684758155263
1.458,-0.17941624318434166
1.46,-0.1437060183289041
1.462,-0.18887669133309187
1.464,-0.22185525224215924
1.466,-0.17113005397407607
1.468,-0.21279968752383294
1.47,-0.16941018044123382
1.472,-0.19950325748089887
1.474,-0.22390531683473497
1.476,-0.20713833338612464
1.478,-0.19053365345432938
1.48,-0.16306953228265708
1.482,-0.21056514002597626
1.484,-0.2182819805590012
1.486,-0.16031696484918367
1.488,-0.16275978086087772
1.49,-0.18802916032954073
1.492,-0.15570665869792027
1.494,-0.17924975462845633
1.496,-0.1701601270719295
1.498,-0.17746367769036536
1.5,-0.21157872248793952
1.502,-0.16073657629478702
1.504,-0.17094111209879853
1.506,-0.19107600008000336
1.508,-0.17282256133238888
1.51,-0.15353662310769114
1.512,-0.15246254466603112
1.514,-0.15302541488998628
1.516,-0.13158295785167454
1.518,-0.1232096749809245
1.52,-0.10055012354247823
1.522,-0.1374120101190509
1.524,-0.1443402228690739
1.526,-0.14085235879358785
1.528,-0.12269117505131599
1.53,-0.11108180031879594
1.532,-0.10713027270948516
1.534,-0.10001869653137108
1.536,-0.1081083856640469
1.538,-0.10236414262208432
1.54,-0.11031423621008127
1.542,-0.11449099038509244
1.544,-0.11470669520323748
1.546,-0.07144518048336475
1.548,-0.05483990119255503
1.55,-0.09123724106014698
1.552,-0.08731104377689247
1.554,-0.11952164149318559
1.556,-0.09738994505525486
1.558,-0.1047239016808511
1.56,-0.08373232916935444
1.562,-0.06263460956521064
1.564,-0.10352702857333433
1.566,-0.07130903628389333
1.568,-0.09252083816604052
1.57,-0.04759298146691627
1.572,-0.08259501682729836
1.574,-0.0032905454331668346
1.576,-0.012957953219190646
1.578,-0.05550640428366202
1.58,-0.06241015272987091
1.582,-0.07338067964990264
1.584,-0.05345341679504382
1.586,-0.052682579973816125
1.588,-0.04764538655855527
1.59,-0.07886534250010618
1.592,-0.06630206447893137
1.594,-0.06501223955493726
1.596,-0.1018628588444651
1.598,-0.07044517436726286
1.6,-0.042009999411193925
1.602,-0.054444712881725615
1.604,-0.016677313770354807
1.606,-0.0436441954313683
1.608,-0.06567957679960008
1.61,-0.08557151266290873
1.612,-0.0406500597605924
1.614,-0.04076406030128838
1.616,-0.02084253801774644
1.618,-0.07398571567816943
1.62,-0.06591916156071376
1.622,-0.048845635925893464
1.624,-0.01905824692371413
1.6260000000000001,-0.06022216779674385
1.6280000000000001,-0.05102108251661171
1.6300000000000001,-0.038042888503987515
1.6320000000000001,-0.016835813944640083
1.6340000000000001,-0.006820894417688588
1.6360000000000001,-0.05660859791772252
1.6380000000000001,-0.03267150815961448
1.6400000000000001,-0.062164477270760896
1.6420000000000001,-0.03524702448998173
1.6440000000000001,-0.05945165031537811
1.6460000000000001,-0.04065648503141709
1.6480000000000001,-0.03744276215884658
1.6500000000000001,-0.034285495232344115
1.6520000000000001,-0.0027215553125135646
1.6540000000000001,-0.01924674490143542
1.6560000000000001,-0.03034805782486281
1.6580000000000001,-0.05814185201114088
1.6600000000000001,-0.06640527047586287
1.6620000000000001,-0.061437891020760575
1.6640000000000001,-0.0689133446961717
1.666,-0.07042024619013257
1.668,-0.030921570902950404
1.67,-0.026191109694170666
1.672,-0.01483585500233054
1.674,-0.05674226578553013
1.676,-0.06536293815464292
1.678,-0.05300412112356352
1.68,-0.040794905379302464
1.682,-0.04976007111717867
1.684,-0.04694393538972326
1.686,-0.026389258312933657
1.688,-0.029282446390691767
1.69,-0.05505821558060865
1.692,-0.04175974731518619
1.694,-0.012326171406816445
1.696,-0.049377364462594275
1.698,-0.06922521911167435
1.7,-0.02600359341742206
1.702,-0.04853861929544029
1.704,-0.0599633424962328
1.706,-0.04395411024261747
1.708,-0.02942065627892449
1.71,-0.03468756574559466
1.712,-0.03936812163690595
1.714,-0.05579322681143546
1.716,-0.043174833889329835
1.718,-0.02115595064081926
1.72,-0.038933977640206674
1.722,-0.03402852762137121
1.724,-0.0033605605346427275
1.726,-0.02399581891955793
1.728,-0.06833458095019286
1.73,0.0026792005733309926
1.732,-0.017074171051771135
1.734,-0.05063774084058495
1.736,-0.05163219659698998
1.738,-0.007939018192242091
1.74,-0.0591924627101098
1.742,-0.026987859079075506
1.744,-0.012197551530939512
1.746,-0.019547599067430428
1.748,-0.018339847748809573
1.75,-0.024959751574431997
1.752,0.005804666055109726
1.754,-0.01379958644449077
1.756,-0.023854788212192883
1.758,-0.009199176524013104
1.76,-0.016426799509552684
1.762,0.001807532086749379
1.764,-0.02856553069108187
1.766,-0.008640920750388081
1.768,0.006661335606395279
1.77,-0.02032441161809613
1.772,-0.0013315547444480297
1.774,0.050398353633152475
1.776,0.021220311623785307
1.778,0.03553768286213273
1.78,0.043054499531350744
1.782,0.055225329206099655
1.784,-0.013300567202251215
1.786,0.0765597971752802
1.788,0.05245125766424061
1.79,0.04115261880347737
1.792,0.0242663493996806
1.794,0.07558136318933514
1.796,0.0788626441531602
1.798,0.07183271717059304
1.8,0.03498376584328605
1.802,0.04056159457422186
1.804,0.07925613214084912
1.806,0.05727597693596107
1.808,0.08189554057130338
1.81,0.042740769594779376
1.812,0.057482180689088794
1.814,0.12133287286726022
1.816,0.06954732844160842
1.818,0.05345196854785278
1.82,0.08741783558079302
1.822,0.0923652385158356
1.824,0.09684043815083766
1.826,0.08573342694056584
1.828,0.07942344926834331
1.83,0.07804862091725819
1.832,0.03646277811624879
1.834,0.06289673100585721
1.836,0.061305663182144296
1.838,0.03945281462168152
1.84,0.029961340601197622
1.842,0.041927425279392305
1.844,0.07246760545251475
1.846,0.0646593554430361
1.848,0.054729907307784736
1.85,0.010515720213264898
1.852,0.018563333013957732
1.854,0.013350377709913826
1.856,0.034568178940774144
1.858,-0.007720632051990334
1.86,0.021430903855046108
1.862,0.018471004387446924
1.864,-0.00030005840908598966
1.866,-0.016962353700052932
1.868,-0.0321603273349885
1.87,-0.012077702585416994
1.872,-0.0195050391072364
1.874,-0.014628201533653813
1.8760000000000001,-0.02983820278376135
1.8780000000000001,-0.03698150083362218
1.8800000000000001,-0.04918283601962563
1.8820000000000001,-0.03485949277766508
1.8840000000000001,-0.03598640978446352
1.8860000000000001,-0.05997340179771289
1.8880000000000001,-0.08480847186326723
1.8900000000000001,-0.08865138308067247
1.8920000000000001,-0.09561373777491988
1.8940000000000001,-0.07084000636676123
1.8960000000000001,-0.10705350230380423
1.8980000000000001,-0.11079076258681671
1.9000000000000001,-0.1144816440188827
1.9020000000000001,-0.11590033193239174
1.9040000000000001,-0.07398188202037645
1.9060000000000001,-0.07676703347424182
1.9080000000000001,-0.08445727468794588
1.9100000000000001,-0.03499013435530764
1.9120000000000001,-0.0006106329072021188
1.9140000000000001,0.0044761517971286455
1.9160000000000001,0.01721011688784487
1.9180000000000001,0.04542857631721302
1.92,0.08195924271345159
1.922,0.1099401415347963
1.924,0.166513095488605
1.926,0.23828328237919905
1.928,0.25404347729308446
1.93,0.31384880396927783
1.932,0.38480433858441737
1.934,0.44747147937023035
1.936,0.48203512951650035
1.938,0.556725871772587
1.94,0.5913500878357923
1.942,0.6236887526623541
1.944,0.6870956056243539
1.946,0.744199037090404
1.948,0.7766794940714681
1.95,0.8202233884733363
1.952,0.8756888352101967
1.954,0.8917561124924894
1.956,0.9479731317640868
1.958,0.9277102612932733
1.96,0.9576677546992469
1.962,0.9917211820394073
1.964,0.9592958898692711
1.966,0.9580743720377329
1.968,0.9554898951283144
1.97,0.9613353409114487
1.972,0.8981389918391831
1.974,0.9016525208251578
1.976,0.8640613267747999
1.978,0.8621822009119957
1.98,0.8136863974132114
1.982,0.786651827425722
1.984,0.7619841262557385
1.986,0.6895172016187375
1.988,0.6376797686705568
1.99,0.5915486037735717
1.992,0.538205066063215
1.994,0.4893228639017127
1.996,0.4601877925437393
1.998,0.42037464642606565
2.0,0.3663251776478256
2.0020000000000002,0.3201627905614604
2.004,0.2616837368081393
2.0060000000000002,0.2298581138301935
2.008,0.2209045897548412
2.0100000000000002,0.18986925491240342
2.012,0.17379386939411745
2.0140000000000002,0.07736158203417041
2.016,0.10708378938130872
2.0180000000000002,0.07255828052115172
2.02,0.06220972136871644
2.0220000000000002,0.01735540496775666
2.024,0.05572240632913718
2.0260000000000002,0.016631185775598165
2.028,-0.01909528430101729
2.0300000000000002,-0.005003814973456882
2.032,0.009089301820267105
2.0340000000000003,0.011356971875016851
2.036,-0.0039266093286922064
2.0380000000000003,-0.040529151172781205
2.04,0.0016868561269651715
2.0420000000000003,0.029094043892249098
2.044,-0.030047007465107283
2.0460000000000003,-0.007078796343439242
2.048,0.011687806705878892
2.05,-0.008486357241081561
2.052,-0.008470803940161978
2.054,-0.03464964302305545
2.056,0.0004982034647714514
2.058,0.04517342950571641
2.06,0.007012269294193834
2.062,-0.012109708401842606
2.064,-0.01689388709932215
2.066,0.004434859387878336
2.068,-0.007898278786603744
2.07,0.03345324449156738
2.072,0.03500260946556865
2.074,0.014697870960012597
2.076,0.0218894500378221
2.078,0.020330714575199856
2.08,0.008004678836505293
2.082,0.0012965801146827011
2.084,0.023926644151969257
2.086,0.004907593144658894
2.088,0.027779384726103713
2.09,0.006504264107616182
2.092,-0.023374837716668977
2.094,0.04089593732054434
2.096,0.033484970479214254
2.098,0.008890036728358317
2.1,-0.026710396518932953
2.102,0.027826484217173382
2.104,-0.0258902110046584
2.106,0.02338072879576129
2.108,0.029244103619347803
2.11,0.03120525023697863
2.112,-0.03566339495207706
2.114,0.0403016671657959
2.116,-0.010909746835157054
2.118,0.02774424663462093
2.12,0.017239636771141584
2.122,0.008057583144248514
2.124,-0.0012813010179523248
2.126,0.004691792695223291
2.128,0.037243907761879684
2.13,0.019994773069846195
2.132,0.02039868442754491
2.134,0.02291098659754012
2.136,-0.004409885737047251
2.138,-0.020833425398494906
2.14,0.01104488608735929
2.142,0.024908913758370083
2.144,0.03729885202269847
2.146,0.028885542236251602
2.148,0.03299870798901397
2.15,0.02628400250978991
2.152,0.010066533546141038
2.154,0.008747060160729228
2.156,0.04053713359587719
2.158,0.045126652525415124
2.16,0.006279148787314151
2.162,0.0025274645621021184
2.164,0.01523289977928518
2.166,0.003713380508236979
2.168,0.03721576267799676
2.17,0.014859576568348114
2.172,0.017019952958638358
2.174,-0.0030441616752831325
2.176,-0.006617905041801873
2.178,0.015937193748989657
2.18,0.045982120860630686
2.182,0.020018426897311502
2.184,0.054497502148041055
2.186,0.010482804840664939
2.188,0.028478472493542725
2.19,0.01393474294236413
2.192,0.02464617052031793
2.194,-0.007357569640230686
2.196,0.021233943953116712
2.198,0.0047310926478308125
2.2,0.0020572709891237342
2.202,0.02677833947261651
2.204,0.013526546607277808
2.206,0.016925580310031225
2.208,0.029601948257571446
2.21,0.01875741735159038
2.212,0.027019307694715028
2.214,-0.000980180089831903
2.216,0.020971192010610484
2.218,-0.010913045390193367
2.22,0.028665878878668907
2.222,-0.04163653795605762
2.224,0.02777564843998851
2.226,-0.020415680185563286
2.228,-0.004336949739399673
2.23,0.03785505647948129
2.232,0.008055455782007413
2.234,-0.032854779194699806
2.236,-0.020471227798954342
2.238,-0.03674625234679135
2.24,-0.025519047117271362
2.242,-0.0337231500544239
2.244,-0.052235043502149664
2.246,-0.03389228415198867
2.248,-0.042970615658537895
2.25,-0.031111479087537613
2.2520000000000002,-0.040018942723937384
2.254,-0.08173692038929542
2.2560000000000002,-0.05071833775276062
2.258,-0.03957170817307035
2.2600000000000002,-0.07400540544248632
2.262,-0.06698347609522035
2.2640000000000002,-0.08185677720017961
2.266,-0.09361727228385427
2.2680000000000002,-0.055740901204550775
2.27,-0.04718253676491274
2.2720000000000002,-0.11203158360158053
2.274,-0.057516724886305784
2.2760000000000002,-0.08473886024579032
2.278,-0.07075649226865309
2.2800000000000002,-0.09735202574517164
2.282,-0.107042406941703
2.2840000000000003,-0.07336889625864633
2.286,-0.09819384742683696
2.2880000000000003,-0.08628288593797667
2.29,-0.12293877157363282
2.2920000000000003,-0.06290680155419312
2.294,-0.09821993089144951
2.2960000000000003,-0.11687387602501717
2.298,-0.1311669124920033
2.3000000000000003,-0.07540110917102988
2.302,-0.108343528123212
2.3040000000000003,-0.158993350753603
2.306,-0.11922249436898522
2.308,-0.14167998796342046
2.31,-0.10867818009702104
2.312,-0.1438088427850018
2.314,-0.1205600360083113
2.316,-0.10869695204336109
2.318,-0.07824773027297116
2.32,-0.11041330773941962
2.322,-0.0975089805910607
2.324,-0.12907126363520216
2.326,-0.10825938259178591
2.328,-0.1281710821354264
2.33,-0.08319681177644887
2.332,-0.11852845027301927
2.334,-0.0716316703076413
2.336,-0.09262834342281856
2.338,-0.09521988303916512
2.34,-0.09919621449488844
2.342,-0.10547276765098079
2.344,-0.06587222751571933
2.346,-0.06767679553202514
2.348,-0.09849052885617907
2.35,-0.08541985640730965
2.352,-0.099176390165232
2.354,-0.06484018982367765
2.356,-0.0688645236947459
2.358,-0.06462502372737904
2.36,-0.05621005438216951
2.362,-0.08624979111881936
2.364,-0.05807477049050672
2.366,-0.0065659318719344245
2.368,-0.06214335376007314
2.37,-0.04500963209894272
2.372,-0.0227683384578677
2.374,-0.03145010623732593
2.376,-0.06134920564126009
2.378,-0.021645774160656092
2.38,-0.018885597279695465
2.382,-0.009809803760668243
2.384,-0.034279539340223195
2.386,-0.013654158208710528
2.388,-0.014645128708035797
2.39,-0.014376649901397552
2.392,-0.05805734430435175
2.394,0.018012187455880235
2.396,-0.04262495635241429
2.398,0.01437918219443915
2.4,0.0040331954516665686
2.402,-0.02362944000880136
2.404,0.007487673010019631
2.406,-0.020374060746698373
2.408,0.0004036341544480862
2.41,0.028849437929839523
2.412,0.0009025927319215865
2.414,0.01270029584770211
2.416,0.024949155008307786
2.418,-0.00017348309000697615
2.42,-0.006896484105603666
2.422,-0.001940945811880354
2.424,0.03851574258487421
2.426,0.013828944735342862
2.428,0.05801852006934622
2.43,0.0241606407019087
2.432,0.07903869681929067
2.434,0.053266918035646815
2.436,0.052670360423448054
2.438,0.02705792693104659
2.44,0.03464801113360521
2.442,0.004172364045356192
2.444,0.056372417990604835
2.446,0.046528980942071606
2.448,0.017597861862460512
2.45,0.08483139417363997
2.452,0.05425664093624407
2.454,0.026434167330669486
2.456,0.041022379563985044
2.458,0.05108173941270319
2.46,0.015145729461409373
2.462,0.02964530277768337
2.464,0.060192980935682795
2.466,0.026488188840086756
2.468,0.07082736525606792
2.47,0.04732401394198536
2.472,0.05698633602281367
2.474,0.10971574200986554
2.476,0.04524120711968296
2.478,0.0394469540556059
2.48,0.06470201277791458
2.482,0.04957789085584794
2.484,0.05087753463980908
2.486,0.04880497852204303
2.488,0.09213835684996304
2.49,0.02895954657470926
2.492,0.024130164296760043
2.494,0.06073783786851512
2.496,0.05742170227652477
2.498,0.03414896428088727
2.5,0.056758391069031314
2.5020000000000002,0.0248018777055649
2.504,0.04338992944949811
2.5060000000000002,0.040168793962111135
2.508,0.051287584132663815
2.5100000000000002,0.05771954624565874
2.512,0.0717230562868235
2.5140000000000002,0.04607996714146864
2.516,0.03938864664238926
2.5180000000000002,0.05052563891710177
2.52,0.05074876395647548
2.5220000000000002,0.06831318608799235
2.524,0.05587607704252641
2.5260000000000002,0.056895985149046625
2.528,0.07960623257754167
2.5300000000000002,0.07441059796147177
2.532,0.07834327741636857
2.5340000000000003,0.056852634850114776
2.536,0.0686180122316575
2.5380000000000003,0.05585028553624619
2.54,0.04162882553375208
2.5420000000000003,0.01636461991641685
2.544,0.04486457039313919
2.5460000000000003,0.06754778159497275
2.548,0.02691648524801169
2.5500000000000003,0.04103590290596571
2.552,0.04319675500606204
2.5540000000000003,0.04135749749053156
2.556,0.06067966288908954
2.5580000000000003,0.05598597768903004
2.56,0.022012158954429706
2.562,0.08695382837106627
2.564,0.06504492037857358
2.566,0.044827798756024086
2.568,0.10657387518780549
2.57,0.04705937335500301
2.572,0.048427527453122864
2.574,0.012554754919037273
2.576,0.04504488328151636
2.578,0.08109948364328183
2.58,0.04668437045598036
2.582,0.07687555683500875
2.584,0.04074853674738168
2.586,0.07437867362573275
2.588,0.04762640996193377
2.59,0.03694863829112399
2.592,0.05411541469372212
2.594,0.05601727536452641
2.596,0.05843399451147857
2.598,0.07496943789518853
2.6,0.06919005248356733
2.602,0.07497506734212808
2.604,0.0667964441073688
2.606,0.07837832988112212
2.608,0.05017400694492423
2.61,0.04962197983486313
2.612,0.06564941090003117
2.614,0.10113631997812382
2.616,0.07496371143625263
2.618,0.043705404335806705
2.62,0.08111919748484314
2.622,0.06156250906362731
2.624,0.0876649887666831
2.626,0.1063890185315056
2.628,0.07733021860800834
2.63,0.0839328651062095
2.632,0.11783871625287784
2.634,0.1220024627578673
2.636,0.11350066423216415
2.638,0.16749195680304413
2.64,0.11662463324833183
2.642,0.11164790819182804
2.644,0.12287656301911395
2.646,0.10369718955751522
2.648,0.10287581266215746
2.65,0.11023764540602063
2.652,0.11775792007474736
2.654,0.13804009877674478
2.656,0.08393087464886875
2.658,0.1241641226112044
2.66,0.13622806738500232
2.662,0.0790269214674936
2.664,0.14798412043202575
2.666,0.14345188145854
2.668,0.1417046942989335
2.67,0.15702690379658799
2.672,0.1284133511463658
2.674,0.11378294703548245
2.676,0.17579996792992636
2.678,0.16953268441719557
2.68,0.11758495506305658
2.682,0.1669612943182956
2.684,0.15586186795186552
2.686,0.16887336009167475
2.688,0.15250279967654629
2.69,0.14273232917102271
2.692,0.12560889646555048
2.694,0.10858879760728984
2.696,0.10672728425950744
2.698,0.12402597311029466
2.7,0.1335590917806001
2.702,0.1564708907727574
2.704,0.08438471761065411
2.706,0.1173392378698837
2.708,0.10400335495934701
2.71,0.09038880508134006
2.712,0.06968173092625526
2.714,0.08581174800114383
2.716,0.06184116014916931
2.718,0.05712895574669804
2.72,0.08741330987371278
2.722,0.02794286383580674
2.724,0.07494270076697351
2.726,0.045150160584503884
2.728,0.058116053148956515
2.73,0.05807226416334526
2.732,0.021148182415976022
2.734,0.012549759261839604
2.736,0.04037372670171377
2.738,-0.005864799904351424
2.74,0.005259291258254216
2.742,0.01042566713801183
2.744,-0.008293326810855824
2.746,-0.02344241755482533
2.748,-0.0550429418195305
2.75,-0.040341693066994526
2.7520000000000002,-0.04340814670611837
2.754,-0.06962176960401632
2.7560000000000002,-0.03997950842991533
2.758,-0.0436198763870641
2.7600000000000002,-0.04469772753612567
2.762,-0.027379730919376837
2.7640000000000002,-0.021533099056142334
2.766,-0.014427036627877796
2.7680000000000002,0.007659788910778904
2.77,0.03831358685800989
2.7720000000000002,0.0678333636094157
2.774,0.059305869483980915
2.7760000000000002,0.07686272397088004
2.778,0.15063450023441763
2.7800000000000002,0.21002102689263258
2.782,0.19797964431742937
2.7840000000000003,0.2574444972116693
2.786,0.35876511582893456
2.7880000000000003,0.35199617556065393
2.79,0.4278226304917889
2.7920000000000003,0.4848715816776575
2.794,0.5399846993345361
2.7960000000000003,0.6062590792674789
2.798,0.6473065443536695
2.8000000000000003,0.6790818145845235
2.802,0.762268293867935
2.8040000000000003,0.7774666643949066
2.806,0.8336340684855913
2.8080000000000003,0.8922588546505692
2.81,0.9170101345198729
2.8120000000000003,0.9472416113735144
2.814,0.9522663314057692
2.816,0.9722227890066626
2.818,1.0172677427626935
2.82,1.01472042072273
2.822,1.0011342502540408
2.824,0.9910956286670314
2.826,1.0068446981327053
2.828,0.9850875032127974
2.83,0.9338446439959284
2.832,0.933254890133019
2.834,0.9140081274902684
2.836,0.8718482506425784
2.838,0.8085733891568182
2.84,0.806583915599735
2.842,0.7763370408385837
2.844,0.7511055420759579
2.846,0.6534537952746063
2.848,0.6363770585589508
2.85,0.5755962202687559
2.852,0.5163147416870858
2.854,0.46984114718256775
2.856,0.4331481339979403
2.858,0.3756399027211251
2.86,0.32972208081124876
2.862,0.288019615911435
2.864,0.24052901861625664
2.866,0.20313671943856745
2.868,0.17614650188452252
2.87,0.13576647922236626
2.872,0.1001913736366122
2.874,0.10285235827637204
2.876,0.07640997485584514
2.878,0.05883722745380921
2.88,0.027005805323651686
2.882,0.0014876355533459586
2.884,0.04887005791379776
2.886,0.018433070918540448
2.888,0.010272190565803441
2.89,0.000607789225528817
2.892,-0.048870319295855884
2.894,-0.022298834399457255
2.896,0.004563292051857858
2.898,0.006231133794950366
2.9,-0.01850845819222286
2.902,-0.007580429903488121
2.904,0.013207639486469577
2.906,-0.004159546675818226
2.908,0.01777828650193114
2.91,0.006799013506920542
2.912,0.005442861160870279
2.914,0.010312142556707206
2.916,0.01054459632402911
2.918,0.027969258067561946
2.92,-0.02230633369715248
2.922,-0.020701224245036367
2.924,-0.006835464573181528
2.926,0.014832671176132404
2.928,0.06824985160975378
2.93,0.009893814800976791
2.932,0.01079161112427131
2.934,0.02130322670998581
2.936,0.002851893715821034
2.938,-0.017982763653668556
2.94,0.03254175228736673
2.942,0.01114742053657829
2.944,-0.012908525358295574
2.946,0.014618201498218809
2.948,-0.0060888541482920595
2.95,0.001680454587686433
2.952,0.026941490526066366
2.954,-1.845811816694352e-05
2.956,0.0059872427645874405
2.958,0.006816304634590446
2.96,0.03889784582857275
2.962,0.02054855744054325
2.964,0.03178108814783767
2.966,0.0277630976023989
2.968,0.010948796818035785
2.97,0.013496745004460473
2.972,-0.0021181790295487467
2.974,-0.006983128218249703
2.976,0.001868867860294957
2.978,-0.007424678374788921
2.98,0.0303652848932641
2.982,-0.012253862697369791
2.984,-0.0007458756801745497
2.986,0.012268621093857906
2.988,-0.0008191678013332986
2.99,-0.01924585936522231
2.992,-0.013682358093283331
2.994,0.00719453869956836
2.996,-0.007018278762399957
2.998,-0.0156132599419388
3.0,-0.040711338679411624
3.0020000000000002,0.020966359676252315
3.004,0.00808933756559701
3.0060000000000002,0.023589241195041452
3.008,0.016295793245032074
3.0100000000000002,-0.018257651109255573
3.012,0.03167269592159926
3.0140000000000002,-0.01636679845686246
3.016,-0.019601346902244732
3.0180000000000002,-0.017692983358131402
3.02,0.006151970367943205
3.0220000000000002,-0.010369762830620419
3.024,0.03531378184845856
3.0260000000000002,-0.012820746190258046
3.028,-0.031114761836256867
3.0300000000000002,-0.022326248903157424
3.032,-0.0018034320811319672
3.0340000000000003,0.025973427429187356
3.036,-0.006594791568477807
3.0380000000000003,0.010620186243957061
3.04,-0.0033095330478501717
3.0420000000000003,-0.027836597537238605
3.044,-0.025655330579479083
3.0460000000000003,-0.012458763401389981
3.048,-0.020766036307514897
3.0500000000000003,0.0012684075727434352
3.052,-0.0006540042083246073
3.0540000000000003,0.016385111801076855
3.056,-0.002120871062882116
3.0580000000000003,-0.004840299444067123
3.06,0.027658946125398442
3.0620000000000003,0.0001616419582712962
3.064,-0.04445146961374023
3.0660000000000003,-0.027107497449766652
3.068,-0.018013800813231118
3.0700000000000003,-0.0707889360201909
3.072,-0.036311067050354785
3.074,-0.06318982107598543
3.076,-0.053313177162890926
3.078,-0.06306912198556304
3.08,-0.046524508656882096
3.082,-0.057113054136827525
3.084,-0.03617504565257465
3.086,-0.04691950562486958
3.088,-0.08791687890615801
3.09,-0.06363296723484702
3.092,-0.07041628607624462
3.094,-0.07058060950052128
3.096,-0.06980790557479215
3.098,-0.10389443421776301
3.1,-0.06055541539792208
3.102,-0.1185580452243945
3.104,-0.12596480490338424
3.106,-0.09396980761294077
3.108,-0.0905191549174196
3.11,-0.11160027520669483
3.112,-0.07027127642423574
3.114,-0.08371791629830211
3.116,-0.11408870524161664
3.118,-0.10454591568668802
3.12,-0.0943173557729708
3.122,-0.1117284171970053
3.124,-0.1363526823239733
3.126,-0.11138445312101405
3.128,-0.1226217281480906
3.13,-0.1157385010033593
3.132,-0.16250149546752668
3.134,-0.15146477716780507
3.136,-0.15300675794421184
3.138,-0.1977478623318874
3.14,-0.17357247609045326
3.142,-0.13720975650474904
3.144,-0.18364385026710317
3.146,-0.17315051229420342
3.148,-0.15471565313120206
3.15,-0.1765076133222592
3.152,-0.15653198215058559
3.154,-0.1864463065682161
3.156,-0.18695632589009087
3.158,-0.18776690324442327
3.16,-0.1665941057509215
3.162,-0.17933276732630077
3.164,-0.16570221549055822
3.166,-0.21604470629956019
3.168,-0.14230861131983102
3.17,-0.15958612300715375
3.172,-0.1532591149854722
3.174,-0.17503930439252563
3.176,-0.19140173397042298
3.178,-0.17764979026407923
3.18,-0.16176409849434478
3.182,-0.15121989512818093
3.184,-0.14927593021506405
3.186,-0.2014315880962647
3.188,-0.19708282860956572
3.19,-0.15407631134013802
3.192,-0.1828835911207691
3.194,-0.20207134034153074
3.196,-0.14790587375642658
3.198,-0.12188966213072282
3.2,-0.19579751109037996
3.202,-0.14200444761502065
3.204,-0.13078705570800095
3.206,-0.13092348601568596
3.208,-0.18411328429152407
3.21,-0.1130983991889574
3.212,-0.12210491845359112
3.214,-0.120250599681265
3.216,-0.12007701842502624
3.218,-0.15386973524305006
3.22,-0.1301988102931815
3.222,-0.12955269116427676
3.224,-0.1516354203394321
3.226,-0.1439572977817404
3.228,-0.11715313189432047
3.23,-0.11092482712093787
3.232,-0.1316401684249417
3.234,-0.10939501502672601
3.236,-0.1126979831341686
3.238,-0.0854286456328352
3.24,-0.10045356003125136
3.242,-0.08604607305970768
3.244,-0.08100773363231552
3.246,-0.1265404111348741
3.248,-0.09993871435762135
3.25,-0.063321566842201
3.2520000000000002,-0.06729745288795991
3.254,-0.07890354049883647
3.2560000000000002,-0.08983227012400524
3.258,-0.09906672624916843
3.2600000000000002,-0.06511361314768875
3.262,-0.03524366744879833
3.2640000000000002,-0.0790050638949221
3.266,-0.09235752055490465
3.2680000000000002,-0.05715640151357409
3.27,-0.031712427686914686
3.2720000000000002,-0.054551377328843284
3.274,-0.06052986900228473
3.2760000000000002,-0.10000827443164621
3.278,-0.0638070533859475
3.2800000000000002,-0.061631449672664936
3.282,-0.03215299390085881
3.2840000000000003,-0.0404817274437028
3.286,-0.0716303742629631
3.2880000000000003,-0.02489373917168197
3.29,-0.057424685715135496
3.2920000000000003,-0.07100466200771836
3.294,-0.07898475645440797
3.2960000000000003,-0.07825397630195995
3.298,-0.0771468127985483
3.3000000000000003,-0.045471150880755595
3.302,-0.05602642419325235
3.3040000000000003,-0.06596476206071433
3.306,-0.08773890692333139
3.3080000000000003,-0.044394030911762215
3.31,-0.03443298711940844
3.3120000000000003,-0.08309952768401316
3.314,-0.06803216970742694
3.3160000000000003,-0.06578606357396515
3.318,-0.01616681698060638
3.3200000000000003,-0.01947010055957313
3.322,-0.026003198369133243
3.3240000000000003,-0.06214239756876233
3.326,-0.03617134671834542
3.3280000000000003,-0.020826454171597456
3.33,-0.010905136731788789
3.332,-0.0705542372745009
3.334,-0.042373037982987166
3.336,-0.040268035986721754
3.338,-0.07204692711408306
3.34,-0.047629835558820076
3.342,-0.07352992553950895
3.344,-0.03207773541057563
3.346,-0.0550651323383112
3.348,-0.07427240564679785
3.35,-0.02385681211439418
3.352,-0.05241502862859063
3.354,-0.04257343321277493
3.356,-0.057811479165963735
3.358,-0.05244003137270703
3.36,-0.05985955792979622
3.362,-0.04639600463667125
3.364,-0.018327403095630353
3.366,-0.03841949522821863
3.368,-0.05674815196436629
3.37,-0.06519038022385365
3.372,-0.06381844233081276
3.374,-0.05989580096325872
3.376,-0.01597634460236598
3.378,-0.07694763491284688
3.38,-0.07611387581635622
3.382,-0.07088153814045295
3.384,-0.06916837946698216
3.386,-0.03799428717339494
3.388,-0.0026165487587642517
3.39,-0.059999076029576624
3.392,-0.053272875555068114
3.394,-0.09091595423963751
3.396,-0.06708195345125498
3.398,-0.025765908823508276
3.4,-0.05583549769934141
3.402,-0.042791217247021104
3.404,-0.034928987962694925
3.406,-0.0358724396994132
3.408,0.014177061195904327
3.41,-0.07757163732057633
3.412,0.009260073594960299
3.414,-0.04989777683770819
3.416,-0.0673179791808286
3.418,-0.02238414056632887
3.42,-0.044810646112778685
3.422,-0.0229634413968382
3.424,-0.013265586833166558
3.426,-0.056889656861295275
3.428,-0.061495912711066227
3.43,-0.03654075742843618
3.432,-0.022984813045149672
3.434,-0.02716308389670809
3.436,-0.050209811194156725
3.438,-0.02939973317562334
3.44,-0.039344383286904136
3.442,-0.038699318718965287
3.444,-0.05164735444923201
3.446,-0.0482960602294774
3.448,-0.0502335974838669
3.45,-0.07329563635437603
3.452,-0.05049629780206572
3.454,-0.025646982298878886
3.456,-0.06796725554940211
3.458,-0.027992214256658602
3.46,-0.0006450167802078879
3.462,-0.03492488558945392
3.464,0.0006610829593365376
3.466,-0.03576046636343531
3.468,-0.032077977963167026
3.47,-0.0344137294662943
3.472,-0.02197469581379105
3.474,-0.018209922121458874
3.476,-0.012184955397977822
3.478,-0.002500101823689857
3.48,-0.01881819471172181
3.482,-0.01071438054421995
3.484,0.01605285150903907
3.486,0.01510500916411412
3.488,-0.02994778382062449
3.49,-0.025397889012396105
3.492,0.044242015420156655
3.494,0.015137795367964502
3.496,0.0028875297206057138
3.498,0.004725802367537835
3.5,0.009901482694788903
3.5020000000000002,0.05081104446830788
3.504,0.01737317512607977
3.5060000000000002,0.003910688852164335
3.508,0.02644779039578199
3.5100000000000002,0.0068709214348570274
3.512,0.06359519684522025
3.5140000000000002,0.06329227644976498
3.516,0.034695771517106594
3.5180000000000002,0.033368066284162605
3.52,0.053838134193868674
3.5220000000000002,0.05351884467456439
3.524,0.05599831699599306
3.5260000000000002,0.040588051990974136
3.528,0.050434904026465395
3.5300000000000002,0.028686177402881707
3.532,0.05799107880125096
3.5340000000000003,0.015030242246956843
3.536,0.03267722353822823
3.5380000000000003,0.030135768420427644
3.54,0.053365728291754934
3.5420000000000003,0.0688296738985427
3.544,0.03856112932495143
3.5460000000000003,0.03341912431687296
3.548,0.048041472636994986
3.5500000000000003,0.04737482903461561
3.552,0.023296541529801464
3.5540000000000003,0.04263285218329428
3.556,0.01887330836822839
3.5580000000000003,0.010481015566998098
3.56,0.014595281769266048
3.5620000000000003,0.01218651663636821
3.564,-0.0031208672293197987
3.5660000000000003,-0.04678607309350266
3.568,0.019197627049040253
3.5700000000000003,-0.003724971616701621
3.572,-0.006121994970060184
3.5740000000000003,-0.061469474927115186
3.576,-0.04424180985212798
3.5780000000000003,0.002257979642590533
3.58,-0.004089208886468423
3.5820000000000003,-0.06406158973413972
3.584,-0.02405781499079007
3.586,-0.004197155087203994
3.588,-0.03198248395982098
3.59,-0.07873193331421935
3.592,-0.03603273265676779
3.594,-0.0491861931340965
3.596,-0.05555594063686631
3.598,-0.10811861690241031
3.6,-0.10069053948933002
3.602,-0.08659773527559757
3.604,-0.1021234556425735
3.606,-0.08701891774042673
3.608,-0.1187542135008984
3.61,-0.1357839230394239
3.612,-0.1391498731916109
3.614,-0.14578310283468277
3.616,-0.1329694155718335
3.618,-0.10271703006617018
3.62,-0.12037113953204107
3.622,-0.08496514676046579
3.624,-0.06792262172645858
3.626,-0.07263187736372886
3.628,-0.007519725475206764
3.63,-0.01999087205054874
3.632,0.07822853716602449
3.634,0.08632563584961184
3.636,0.11307382947699783
3.638,0.10906041821244433
3.64,0.17490249699349797
3.642,0.22707780057639343
3.644,0.26002494853801594
3.646,0.3373135373969553
3.648,0.3918893130973754
3.65,0.45872540977502585
3.652,0.5110729734822737
3.654,0.5450603897123129
3.656,0.5866191840926567
3.658,0.6104620054920921
3.66,0.7067953047690901
3.662,0.734876588901366
3.664,0.7893727765216423
3.666,0.8451936693879206
3.668,0.8570987232197989
3.67,0.8450658205693761
3.672,0.8962524340497573
3.674,0.9369938420549597
3.676,0.9628087443934803
3.678,0.9336665195059608
3.68,0.89200085613641
3.682,0.9126536919572393
3.684,0.8945162664957456
3.686,0.8588148472940268
3.688,0.8990819601784343
3.69,0.8444379962630999
3.692,0.8218494411662489
3.694,0.7788842479481538
3.696,0.7724620813637039
3.698,0.6763354251102418
3.7,0.6887029359467022
3.702,0.6071549621684721
3.704,0.5528486432872659
3.706,0.5461805884048833
3.708,0.48387348060497304
3.71,0.39611966780370717
3.712,0.3864257712034163
3.714,0.3669461443584571
3.716,0.29668146737853773
3.718,0.27725959256898297
3.72,0.22938227671387176
3.722,0.1569858584062584
3.724,0.15400707504969333
3.726,0.11278637010249785
3.728,0.07991830558693043
3.73,0.03656384805872778
3.732,0.01899664576046884
3.734,0.0074109453047506366
3.736,-0.004264643240197
3.738,0.0023901776069640383
3.74,-0.01099638944857197
3.742,-0.030200472702997683
3.744,-0.019178788069460714
3.746,-0.03708958724050106
3.748,-0.056708423823905875
3.75,-0.04547305633792044
3.7520000000000002,-0.025728303518154312
3.754,-0.041320840983321463
3.7560000000000002,-0.03106850053633037
3.758,-0.029106734461843673
3.7600000000000002,-0.08118473763794067
3.762,-0.055260970294199054
3.7640000000000002,-0.0747405104503357
3.766,-0.04938336021378331
3.7680000000000002,-0.06760995484521189
3.77,-0.03438435375716917
3.7720000000000002,-0.054175728787516746
3.774,-0.06125778693474322
3.7760000000000002,-0.04857303844400289
3.778,-0.05998067300438109
3.7800000000000002,-0.04793123430223496
3.782,-0.01924475308068472
3.7840000000000003,-0.05928573388007491
3.786,-0.05559451217971104
3.7880000000000003,-0.04215156083722318
3.79,-0.023254064967415715
3.7920000000000003,-0.018159581969419653
3.794,-0.02020786367608804
3.7960000000000003,-0.03352097114124371
3.798,-0.01764957256766513
3.8000000000000003,-0.021927562286012624
3.802,-0.04185505084042911
3.8040000000000003,-0.03642036519227967
3.806,0.020852828581075098
3.8080000000000003,-0.02846545946494284
3.81,-0.011002650047732841
3.8120000000000003,-0.028148956144830144
3.814,-0.060958032060381306
3.8160000000000003,-0.043271662250290166
3.818,0.022524019935458522
3.8200000000000003,-0.05702729832540847
3.822,-0.04397921044227076
3.8240000000000003,-0.05244181787089339
3.826,-0.027679811318051913
3.8280000000000003,-0.016435900754240267
3.83,0.002385436065396327
3.8320000000000003,-0.012609950379296896
3.834,0.0021966006877321316
3.8360000000000003,-0.02380064450399199
3.838,-0.028263865662774015
3.84,-0.028301688874008885
3.842,-0.014313224483893964
3.844,-0.0104864329311357
3.846,-0.021013284783488708
3.848,0.0034053065356655656
3.85,-0.008981811151713122
3.852,-0.026037569614414953
3.854,-0.0343811929590505
3.856,-0.025777070546253163
3.858,-0.038275387741725966
3.86,-0.070768734086252
3.862,0.0025663587221260047
3.864,-0.01536001212245618
3.866,-0.007368164376169599
3.868,-0.03674223303494509
3.87,-0.03793705677891532
3.872,-0.021228053617196596
3.874,-0.015368454554058006
3.876,-0.045676729121436846
3.878,-0.02387320738655757
3.88,-0.016684733257082144
3.882,-0.0699051005308678
3.884,-0.012761960034238684
3.886,-0.00937010701532901
3.888,0.015445728809976134
3.89,-0.03308074666804628
3.892,-0.0041480550064923166
3.894,-0.025153620033835495
3.896,-0.0016773768756210145
3.898,-0.015766890045692213
3.9,-0.04581920256803852
3.902,-0.048772756021936904
3.904,-0.02234107615184603
3.906,0.0008682266077564456
3.908,-0.03756047617760119
3.91,-0.035271598089561346
3.912,-0.02339544012332335
3.914,-0.04369873510520858
3.916,-0.038311795199175575
3.918,-0.04897563807216166
3.92,-0.011226849825537705
3.922,-0.04447314098784225
3.924,-0.025910656561811782
3.926,-0.004666978944342398
3.928,-0.04761475723043549
3.93,0.010453454820818567
3.932,-0.09803739864266459
3.934,-0.06155349433031949
3.936,-0.034037660184988626
3.938,-0.05855496392870615
3.94,-0.05168865291647099
3.942,-0.03607649119146673
3.944,-0.052730293993974435
3.946,-0.10092736766143943
3.948,-0.04100107992054201
3.95,-0.08063980710216484
3.952,-0.08256366897251302
3.954,-0.07682213322404628
3.956,-0.08378679367786661
3.958,-0.10337972624854663
3.96,-0.0506545394483094
3.962,-0.07568372001529551
3.964,-0.09020046002924122
3.966,-0.08463879681770933
3.968,-0.057626267101794686
3.97,-0.07994824903853254
3.972,-0.10367736490572163
3.974,-0.10122764252665825
3.976,-0.08226726683766336
3.978,-0.09544767466943997
3.98,-0.12776783250941487
3.982,-0.10701350209324417
3.984,-0.10404520260815982
3.986,-0.14273450227330642
3.988,-0.14820329778207375
3.99,-0.09432300521565709
3.992,-0.12934875862267825
3.994,-0.11385434928435322
3.996,-0.1539354387935347
3.998,-0.12003641082013403
4.0,-0.15555000733769614
4.002,-0.1366391239061347
4.0040000000000004,-0.13777010112327087
4.006,-0.16832808269186103
4.008,-0.10889908562057808
4.01,-0.15303058332828345
4.0120000000000005,-0.12498666729155078
4.014,-0.14478533842618302
4.016,-0.1530412559354324
4.018,-0.13623442477671346
4.0200000000000005,-0.17281182032478815
4.022,-0.12651898107118764
4.024,-0.1287006374926598
4.026,-0.12892561728592017
4.0280000000000005,-0.13749756638488925
4.03,-0.17559929799228496
4.032,-0.1467122455680162
4.034,-0.19124225984826035
4.0360000000000005,-0.16404493930017497
4.038,-0.13491466997281393
4.04,-0.16323764202254268
4.042,-0.16206659743150056
4.0440000000000005,-0.14557294856150998
4.046,-0.11490678042794245
4.048,-0.1231043246884897
4.05,-0.13933835411710904
4.0520000000000005,-0.12693459373850635
4.054,-0.13422588580822087
4.056,-0.11492167277593163
4.058,-0.13260590928681407
4.0600000000000005,-0.1310800769491201
4.062,-0.12673972495328564
4.064,-0.09040757837411749
4.066,-0.10804184254896208
4.0680000000000005,-0.14594637701481986
4.07,-0.11235402553375931
4.072,-0.05174563886736403
4.074,-0.10022221516009736
4.0760000000000005,-0.11306609827236211
4.078,-0.08400509898186306
4.08,-0.07587943348271775
4.082,-0.08422114938958983
4.0840000000000005,-0.08751132161207388
4.086,-0.05510407054037233
4.088,-0.006305263119370533
4.09,-0.07125383839053177
4.0920000000000005,-0.0825922142752459
4.094,-0.08634084043056935
4.096,-0.05161968000513789
4.098,-0.051365460672035186
4.1,-0.05630949455058457
4.102,-0.03174244150809434
4.104,-0.036905365302547094
4.106,-0.0390432969033266
4.108,-0.06464205691427866
4.11,-0.03969785136115073
4.112,-0.037345224388991835
4.114,-0.027136550156982492
4.116,-0.025436109293052178
4.118,-0.020343158680947576
4.12,-0.014163869490903501
4.122,-0.03130960463179765
4.124,0.015051484822915163
4.126,-0.007095641768052507
4.128,-0.026644051106755
4.13,-0.025345110323066782
4.132,0.01256882160690178
4.134,0.032968110461275985
4.136,0.0008574342167595866
4.138,0.012634742675709805
4.14,-0.03266162125209611
4.142,-0.011396712375160472
4.144,-0.02694588486896009
4.146,-0.011159681624632434
4.148,0.0068185183493122865
4.15,0.005899105635716929
4.152,0.03359065904304218
4.154,0.019970526006822857
4.156,0.017593846653204657
4.158,0.013252131956494653
4.16,0.03528776875604078
4.162,-0.012466725963384334
4.164,0.009477452070368302
4.166,0.022773024042732425
4.168,0.008936715370793092
4.17,0.0320339873841214
4.172,0.009347952939424128
4.174,0.03103197130261355
4.176,0.033323574883195324
4.178,-0.010867157022955336
4.18,0.030068471372990034
4.182,0.024427105236034873
4.184,0.015394017499674959
4.186,0.07568104264999806
4.188,0.0032393849523525173
4.19,0.016479903865384483
4.192,0.018920284601768776
4.194,0.03458086515683913
4.196,0.04248739798543534
4.198,0.02936076529992379
4.2,0.026821189335775056
4.202,0.047485449749610435
4.204,0.0280130352431856
4.206,0.0030925632958530304
4.208,0.023839712219658995
4.21,0.04874397165950503
4.212,0.0292356693176121
4.214,0.04148431664277723
4.216,0.023014237951119936
4.218,0.02884259658921036
4.22,0.04665052647332612
4.222,0.0709542909249161
4.224,0.03654641534408169
4.226,0.061351275794186776
4.228,0.06368182189752229
4.23,0.061057521865224215
4.232,0.021170332609419428
4.234,0.04945595557647054
4.236,0.03753799450743278
4.238,0.05357337377260744
4.24,0.02646344670458322
4.242,0.03567494590068037
4.244,0.0608647475501614
4.246,0.05065289731266558
4.248,0.02160893172179724
4.25,0.008389159229327587
4.252,0.04877185649490807
4.2540000000000004,0.0770025914641347
4.256,0.016715925753391776
4.258,0.06751113616767776
4.26,0.07932741753339738
4.2620000000000005,0.04306909246762667
4.264,-0.009147730308924957
4.266,0.0010685180964935903
4.268,0.025490774798779422
4.2700000000000005,0.03002716132573158
4.272,0.04899495690812336
4.274,0.0438522888574974
4.276,0.047681941404159996
4.2780000000000005,0.04770089897751511
4.28,0.05322578556285173
4.282,0.03472768605250251
4.284,0.006638838294449761
4.2860000000000005,0.0543399786245889
4.288,0.07443514096207345
4.29,0.02811209106971068
4.292,0.05138234950255938
4.2940000000000005,0.033405927240094585
4.296,0.06615202389421311
4.298,0.014604569731170369
4.3,0.05299001152605923
4.3020000000000005,0.039974278414867004
4.304,0.046401514316438776
4.306,0.05097409991913401
4.308,0.055136007804804474
4.3100000000000005,0.07581512694587458
4.312,0.10409765778351678
4.314,0.07367353333107321
4.316,0.059031341535121275
4.3180000000000005,0.07098107484103527
4.32,0.08156768008076108
4.322,0.08292800841776243
4.324,0.030207354865466707
4.3260000000000005,0.05918281506125275
4.328,0.05105888651182308
4.33,0.0742077669645608
4.332,0.09080632802523095
4.3340000000000005,0.1093236259854323
4.336,0.09959769766836951
4.338,0.08720802111344553
4.34,0.10894650362505609
4.3420000000000005,0.07279181920866258
4.344,0.1062562737694908
4.346,0.10818655020398002
4.348,0.11412547164764048
4.3500000000000005,0.08596509341432876
4.352,0.11045381942443175
4.354,0.09796504426458563
4.356,0.10248896020851038
4.358,0.11864129044145805
4.36,0.137148756122682
4.362,0.12867093408714783
4.364,0.10379745427515591
4.366,0.12120662929947307
4.368,0.13866967933426122
4.37,0.17530457685823225
4.372,0.1497020480374044
4.374,0.1430964579668838
4.376,0.11847994148264235
4.378,0.1194384305102233
4.38,0.1604536285322074
4.382,0.14203360820945385
4.384,0.12100125254902634
4.386,0.1520898575626
4.388,0.1533480750886424
4.39,0.14475068268528526
4.392,0.1542942773864895
4.394,0.1220252925091001
4.396,0.17713007881753395
4.398,0.1334829077622397
4.4,0.1239518743731259
4.402,0.163214942679986
4.404,0.1504457642712173
4.406,0.11778575578646112
4.408,0.13850859362577422
4.41,0.11548537116025423
4.412,0.11974650145856794
4.414,0.09003766963317836
4.416,0.1184517443625285
4.418,0.10357862033231452
4.42,0.12948319617467016
4.422,0.0888010968913233
4.424,0.13670158517747713
4.426,0.05735960458389562
4.428,0.08951670725382385
4.43,0.11658730189561115
4.432,0.089890408497186
4.434,0.08276254383770329
4.436,0.07893441554507258
4.438,0.0523791371649361
4.44,0.032686442322899634
4.442,0.025324969560907594
4.444,0.039722782476866274
4.446,0.06686590656560251
4.448,0.04726359846253266
4.45,0.02655113081669496
4.452,0.06763439963853687
4.454,-0.006204728205378863
4.456,0.006864646126844981
4.458,-0.012630020633919409
4.46,0.0027930462669266617
4.462,-0.012589436785591955
4.464,-0.020882015256414033
4.466,-0.03560407056237396
4.468,-0.03229323354346688
4.47,-0.05689680620277181
4.472,-0.04634413892852478
4.474,-0.01451266822889316
4.476,-0.02709329330277699
4.478,-0.016442227767894002
4.48,0.022147043137400978
4.482,0.019970594405762054
4.484,0.031008031297945753
4.486,0.06372552459648008
4.488,0.09867536731871956
4.49,0.09661370926283294
4.492,0.17077740040255318
4.494,0.17268225620867544
4.496,0.2583683731958764
4.498,0.28663083568711106
4.5,0.35815055570641635
4.502,0.3872227065980387
4.5040000000000004,0.44363998237661617
4.506,0.5170053481614174
4.508,0.5607352188247561
4.51,0.6302276892822994
4.5120000000000005,0.6408220062046428
4.514,0.6914156943940233
4.516,0.7471621786310608
4.518,0.7969485532867286
4.5200000000000005,0.8873328615177732
4.522,0.898154744165028
4.524,0.9301348650368835
4.526,0.9799594170999154
4.5280000000000005,1.0230435360057288
4.53,0.9875499428289043
4.532,1.0008643697347424
4.534,1.039792321384044
4.5360000000000005,1.0344690426404741
4.538,1.0118680258999446
4.54,1.0412343528513344
4.542,0.9945041655214055
4.5440000000000005,1.009190452958518
4.546,0.9659759963109777
4.548,0.911122229646245
4.55,0.9279656565064558
4.5520000000000005,0.8924875728366759
4.554,0.8562624944858132
4.556,0.760591717856255
4.558,0.7680103213786361
4.5600000000000005,0.6696515647882898
4.562,0.6567721029779798
4.564,0.5673757569178135
4.566,0.5500216169577034
4.5680000000000005,0.5069688046953139
4.57,0.4362047167238255
4.572,0.41872259837070325
4.574,0.37846300857707793
4.5760000000000005,0.3025090713008272
4.578,0.289324100921268
4.58,0.23488512183554633
4.582,0.21392623298751423
4.5840000000000005,0.19104616830757187
4.586,0.1543727341653083
4.588,0.1590753407775491
4.59,0.10088405237612584
4.5920000000000005,0.07556491677802686
4.594,0.07637798187063344
4.596,0.04080683197688549
4.598,0.060818218253896716
4.6000000000000005,0.0341822039224024
4.602,0.049825346685930395
4.604,0.04953845024830144
4.606,0.03705605912707788
4.6080000000000005,0.008805066011530048
4.61,0.03317203071464209
4.612,0.03626388481560887
4.614,0.016062782740699846
4.616,0.04157424757688207
4.618,0.06013550097217703
4.62,0.022873681158963738
4.622,-0.0014482469439952139
4.624,0.031328795560773726
4.626,0.04703258090139815
4.628,0.03234925820990052
4.63,0.036627542290141236
4.632,0.044907052728649914
4.634,0.023780501375885537
4.636,0.023976245136154314
4.638,0.014254014520125612
4.64,0.03299761996770785
4.642,0.04972009080295548
4.644,0.020140066484983652
4.646,0.06931835508535701
4.648,0.05970960033934551
4.65,0.06620251549501252
4.652,0.05555848995843522
4.654,0.019222898595072393
4.656,0.0415979003982411
4.658,0.04990498960183028
4.66,0.030318977408549636
4.662,0.04723009650180146
4.664,0.038978330705088986
4.666,0.06335635470892613
4.668,0.030375004822970657
4.67,0.031297892028531595
4.672,0.06097427509637275
4.674,0.0679355420513902
4.676,0.0522239386451729
4.678,0.06891744139098482
4.68,0.04201044061010207
4.682,0.0495111487850668
4.684,0.06145565175205978
4.686,0.04684959308087109
4.688,0.03378710158647822
4.69,0.06624121212175202
4.692,0.023730322619375684
4.694,0.04776123836050061
4.696,0.05307619133225986
4.698,0.022863630810797102
4.7,0.045544961787878216
4.702,0.04715415788353007
4.704,0.056171037004054424
4.706,0.06479012482498757
4.708,0.05842083522446494
4.71,0.03670164633619859
4.712,0.05064973485578123
4.714,-0.00014041907590501938
4.716,0.016674847237863135
4.718,0.025747446162828775
4.72,0.03464561164903473
4.722,0.04983935201042096
4.724,0.040460073633204106
4.726,0.040684729787054515
4.728,0.015089897708563846
4.73,0.046787912184890916
4.732,0.00043535019238337327
4.734,0.06079674228496918
4.736,-0.007812928067842603
4.738,0.01952765645610213
4.74,0.02306799271847718
4.742,0.017200427573624964
4.744,0.04044756638877587
4.746,0.04593773103653283
4.748,0.00039253738215062374
4.75,0.037892468350853546
4.752,0.01300933840017447
4.7540000000000004,0.015617772707458783
4.756,0.019738878775338774
4.758,0.021640667571377992
4.76,0.04102033682827661
4.7620000000000005,0.03660062228278482
4.764,0.038967828421659495
4.766,-0.01422478091279656
4.768,0.020377101862737522
4.7700000000000005,-0.006826375109483671
4.772,0.046171046230077124
4.774,0.0043450735735954815
4.776,0.039987669882225685
4.7780000000000005,0.000902853633247741
4.78,0.05199969766149041
4.782,0.014493936482290644
4.784,0.01252953878799817
4.7860000000000005,-0.00781732957202702
4.788,-0.028049523703580867
4.79,-0.012894974296691841
4.792,-0.0029205669436259546
4.7940000000000005,-0.02030672823842733
4.796,-0.02138124564076967
4.798,-0.023603419149163692
4.8,0.020265913615913463
4.8020000000000005,-0.02012949002420983
4.804,-0.034447708289208276
4.806,-0.04395413346317266
4.808,-0.032290334069937386
4.8100000000000005,-0.018985299864921354
4.812,-0.01955145162858031
4.814,-0.04186616868084577
4.816,-0.01871798035723167
4.8180000000000005,-0.07758979105353395
4.82,-0.018423137834994482
4.822,-0.03316776107475948
4.824,-0.06492009081270891
4.8260000000000005,-0.06306102034980504
4.828,-0.02722434430668448
4.83,-0.0875106700686607
4.832,-0.046193748847945054
4.8340000000000005,-0.0708087547667097
4.836,-0.08962502514730078
4.838,-0.05199242031164503
4.84,-0.08550629235623747
4.8420000000000005,-0.09337313554810103
4.844,-0.11507810301696572
4.846,-0.0953864228084458
4.848,-0.06048171019418641
4.8500000000000005,-0.10974157422319887
4.852,-0.10480771613157056
4.854,-0.10056080928478058
4.856,-0.10266677015125716
4.8580000000000005,-0.11612858806541806
4.86,-0.1157033943457676
4.862,-0.12355019234891969
4.864,-0.162102296735875
4.866,-0.10980141260213461
4.868,-0.14340822440662893
4.87,-0.09812124014402182
4.872,-0.16021406025976398
4.874,-0.13738190302732778
4.876,-0.1364024189584782
4.878,-0.12378412257984665
4.88,-0.1328696162173245
4.882,-0.13664992778232032
4.884,-0.14934724632829174
4.886,-0.14479770365451206
4.888,-0.13043289893881713
4.89,-0.15429013674673256
4.892,-0.13818813905714766
4.894,-0.11559322218395199
4.896,-0.1672017886515968
4.898,-0.15767800628735815
4.9,-0.10431003826659192
4.902,-0.12941737360882188
4.904,-0.12511434476904496
4.906,-0.16184339518297441
4.908,-0.11566793968987635
4.91,-0.09323282116385949
4.912,-0.1169902789019567
4.914,-0.12249394903105236
4.916,-0.1595033875431837
4.918,-0.11023787224699479
4.92,-0.15177856058850123
4.922,-0.13698258474752179
4.924,-0.08698824978402277
4.926,-0.12010307009237917
4.928,-0.11530874916209578
4.93,-0.10785007235522395
4.932,-0.07043503307215987
4.934,-0.08740122128350829
4.936,-0.08909517523936719
4.938,-0.05594780929344115
4.94,-0.1031462606503108
4.942,-0.08059825319314565
4.944,-0.05347219772641941
4.946,-0.06278945357342408
4.948,-0.06855767500441573
4.95,-0.08115850925892215
4.952,-0.08203732110047636
4.954,-0.06347909470724997
4.956,-0.08548728646131187
4.958,-0.0804142295444428
4.96,-0.07130143158332387
4.962,-0.02074768725169275
4.964,-0.019939568078775338
4.966,-0.0890713900785367
4.968,-0.058190360452802826
4.97,-0.015849525126233124
4.972,-0.05879487999403887
4.974,-0.00465481291790161
4.976,-0.07146391923328876
4.978,-0.06780498613041255
4.98,-0.03431643478939177
4.982,-0.0032279463580474135
4.984,-0.06404040090316723
4.986,-0.02901081944290819
4.988,-0.01522066308989403
4.99,-0.08195607986729535
4.992,-0.03179078799293306
4.994,-0.021679359072073547
4.996,-0.06303278388498279
4.998,-0.050937637393342276
5.0,-0.004381626149180029
5.002,0.014176985944594406
5.0040000000000004,-0.017821432502560085
5.006,-0.049789139960889905
5.008,-0.0274652003497029
5.01,-0.022956546870345353
5.0120000000000005,-0.04262080179410067
5.014,-0.04804035349021427
5.016,-0.044054705223746514
5.018,-0.023587828990797942
5.0200000000000005,0.003004508209397544
5.022,0.031950426001976825
5.024,0.018916150904229594
5.026,-0.018318554806611178
5.0280000000000005,0.002986080860137137
5.03,-0.028181670363402973
5.032,-0.047951265784573156
5.034,0.0029249358875854323
5.0360000000000005,-0.03679693683984653
5.038,-0.03988436738146698
5.04,-0.01113973286180605
5.042,0.013255555494464883
5.0440000000000005,-0.00426198608624061
5.046,-0.04186334782263452
5.048,-0.016306830759337934
5.05,0.0016596668399546173
5.0520000000000005,-0.02229189126897352
5.054,0.02808460754294866
5.056,-0.014637732279135967
5.058,0.0006582145728258409
5.0600000000000005,-0.01332034653624635
5.062,0.0024924573128775034
5.064,-0.0015034934783272234
5.066,0.02920661779785441
5.0680000000000005,-0.01713780297757314
5.07,-0.040325827172886866
5.072,-0.0036172905971491418
5.074,-0.023572071494768358
5.0760000000000005,0.003910079536284987
5.078,0.0029206456417630745
5.08,0.013723014423408238
5.082,-0.005679932361502976
5.0840000000000005,-0.0067764213940922444
5.086,0.014410066758118113
5.088,-0.017714701356007074
5.09,0.015268373763297725
5.0920000000000005,-0.04482556011676851
5.094,-0.02923029013418069
5.096,-0.04136697311746438
5.098,-0.015396512307412505
5.1000000000000005,-0.04776908930534526
5.102,-0.02711049818965915
5.104,-0.03975070667324784
5.106,6.527914409337002e-05
5.1080000000000005,-0.02129197334377054
5.11,-0.0321291343407724
5.112,-0.014783445849594241
5.114,-0.049232629050228585
5.1160000000000005,-0.0658095530988544
5.118,-0.01355086306486816
5.12,-0.03827480194138285
5.122,-0.0032836280157023216
5.124,0.004769453250698831
5.126,-0.007756704982230698
5.128,-0.012842106676466323
5.13,-0.04816736675143328
5.132,-0.014590598901213742
5.134,-0.0325300075933684
5.136,-0.005735001037828697
5.138,0.00035754619190422226
5.14,-0.009589146762385979
5.142,-0.054191692417750924
5.144,0.026393416300285744
5.146,0.020564486224664266
5.148,-0.028669447707733452
5.15,-0.03681681573489301
5.152,-0.011602997395936124
5.154,-0.007856075381382865
5.156,-0.03564428829402563
5.158,-0.015677451859483115
5.16,-0.0003352720209945769
5.162,-0.025182665938942222
5.164,-0.021806049945722335
5.166,-0.026066276676515704
5.168,0.00576166186341817
5.17,-0.024186679163974052
5.172,-0.03223182950888964
5.174,-0.02715121310840033
5.176,-0.017707981797380347
5.178,-0.007753620768835796
5.18,0.02783626921539127
5.182,-0.0006743350733285809
5.184,0.026046552628264868
5.186,-0.025424098137262527
5.188,0.014031080637600002
5.19,0.026009183932434236
5.192,0.06870178217188999
5.194,0.012596640952953257
5.196,0.020511508823805646
5.198,0.042752354315963775
5.2,0.0012556101410558587
5.202,0.030513007020377347
5.204,0.013574616317327773
5.206,0.01664413677630896
5.208,0.033717315731870465
5.21,0.08317700758458708
5.212,0.04283976206038438
5.214,0.034227073302757816
5.216,0.045417853286140716
5.218,0.03231760013073024
5.22,0.07738427289721611
5.222,0.04444502117740374
5.224,0.09169964835007643
5.226,0.060577207748839304
5.228,0.0596892641242278
5.23,0.044893520618982885
5.232,0.07893452164492688
5.234,0.08451277003793732
5.236,0.016996175933543647
5.238,0.09526039841826689
5.24,0.09372248475531435
5.242,0.06495118928854839
5.244,0.0758676515029737
5.246,0.028549423032760354
5.248,0.040465130212428875
5.25,0.06242857001027389
5.252,0.03786591678616162
5.2540000000000004,0.03554257002695396
5.256,0.07268401328854195
5.258,0.01898683580591287
5.26,0.046980087446795965
5.2620000000000005,0.017455646508334283
5.264,0.03540000845094935
5.266,0.07096352243893518
5.268,0.030956225827560954
5.2700000000000005,0.021567992695531737
5.272,0.038932816914835355
5.274,0.02145512316403915
5.276,0.039176383365985175
5.2780000000000005,0.047485135828245914
5.28,-0.020640347280272135
5.282,-0.013418681492812785
5.284,-0.000663194746250248
5.2860000000000005,-0.003741065849258242
5.288,0.0033458788036601836
5.29,-0.04362444740838225
5.292,-0.01829037024868963
5.2940000000000005,-0.014585281257312212
5.296,-0.014062542011582326
5.298,-0.03126643540565679
5.3,-0.038359353420090087
5.3020000000000005,-0.015267591210518341
5.304,-0.03611666431820065
5.306,-0.07061860043790952
5.308,-0.07991602378173976
5.3100000000000005,-0.06278337482775892
5.312,-0.07149873831279442
5.314,-0.0838877886102293
5.316,-0.08011676474768215
5.3180000000000005,-0.09914843647344797
5.32,-0.1334069395425681
5.322,-0.10841864609946186
5.324,-0.13547454690544206
5.3260000000000005,-0.11534858397821257
5.328,-0.10788834988323232
5.33,-0.15056971344083617
5.332,-0.12124053163863449
5.3340000000000005,-0.1320168025028976
5.336,-0.10130289498044767
5.338,-0.09268357002075642
5.34,-0.06766316679856733
5.3420000000000005,-0.06493980198578793
5.344,0.024696718957534024
5.346,0.013325173801883847
5.348,0.042303062556889474
5.3500000000000005,0.10064672035238982
5.352,0.12886502444530282
5.354,0.17265366065653037
5.356,0.23019939409880963
5.3580000000000005,0.250226431053137
5.36,0.3299916730674882
5.362,0.3887799823119764
5.364,0.42225259851610325
5.3660000000000005,0.4946525904134446
5.368,0.540401614360573
5.37,0.5528629463657737
5.372,0.6275170619189883
5.3740000000000006,0.7037397168774069
5.376,0.7140301700824738
5.378,0.773832902981549
5.38,0.8007497884729851
5.382,0.8603862934010442
5.384,0.8860090746208139
5.386,0.8946999989181735
5.388,0.935744239297813
5.39,0.9383894270396301
5.392,0.967427915229768
5.394,0.9281214169101171
5.396,0.9050180465153193
5.398,0.9768034034634389
5.4,0.9343131968877672
5.402,0.8622716654791207
5.404,0.8552199104620537
5.406,0.8148293446515642
5.408,0.7716050607396177
5.41,0.7133452844493962
5.412,0.7048521366133644
5.414,0.653503218937052
5.416,0.6490294823045795
5.418,0.6029732640607541
5.42,0.5298939242061242
5.422,0.5070825788523768
5.424,0.4465526833384299
5.426,0.3742678787008438
5.428,0.33893596980756174
5.43,0.28891688084612777
5.432,0.23546172865197051
5.434,0.22837342703577138
5.436,0.19092994630103402
5.438,0.15127043265114892
5.44,0.08974758437505237
5.442,0.07265155268077059
5.444,0.06138732454516333
5.446,0.007258765356880678
5.448,0.020207645381781388
5.45,0.014528402619341383
5.452,-0.041617170848462504
5.454,-0.024470044030849233
5.456,-0.04997292805404331
5.458,-0.040984174033905266
5.46,-0.036556337145057974
5.462,-0.06722517183757162
5.464,-0.05900819651463394
5.466,-0.06758746041922054
5.468,-0.0906512962856139
5.47,-0.047183111485636364
5.472,-0.05444834687432944
5.474,-0.07418062183150569
5.476,-0.05928986274660438
5.478,-0.043017534989569076
5.48,-0.030148590278758398
5.482,-0.004660153295505941
5.484,-0.04263264650432019
5.486,-0.06919333061534338
5.488,-0.05089164283097436
5.49,-0.05095130839664444
5.492,-0.1141265374160488
5.494,-0.0515708749762482
5.496,-0.08391692970045682
5.498,-0.035862502746750125
5.5,-0.06612831036687453
5.502,-0.026032363738898702
5.5040000000000004,-0.060173491947786935
5.506,-0.05923600507784167
5.508,-0.07213815009644343
5.51,-0.0767847957246885
5.5120000000000005,-0.035784957978366054
5.514,-0.007329898937857842
5.516,-0.05440547661971629
5.518,-0.0682199794953832
5.5200000000000005,-0.07502833956580987
5.522,-0.057800218893808236
5.524,-0.06776242318973454
5.526,-0.028247846659999895
5.5280000000000005,-0.03007026935779193
5.53,-0.03061448534226739
5.532,-0.03542275913793591
5.534,-0.020061312734537158
5.5360000000000005,-0.05899473481136765
5.538,-0.03893249532523188
5.54,-0.05593758308243528
5.542,-0.026045744944261977
5.5440000000000005,-0.057998243717246926
5.546,-0.030910675005190732
5.548,-0.02943394453936011
5.55,-0.04695596694484662
5.5520000000000005,-0.02438269482167252
5.554,-0.042009446099897825
5.556,-0.07900075736953341
5.558,-0.020210624499799865
5.5600000000000005,-0.07789995281661972
5.562,-0.008038359980842902
5.564,-0.04576422355641162
5.566,-0.037787361458616796
5.5680000000000005,-0.041913254505484575
5.57,-0.042339941044369216
5.572,-0.044216364640469415
5.574,-0.04606621344612619
5.5760000000000005,-0.06486400646932426
5.578,-0.059892655254808747
5.58,-0.05502438899356781
5.582,-0.04884701500757014
5.5840000000000005,-0.06683457655936285
5.586,-0.03347810404783337
5.588,-0.09343699819208101
5.59,-0.07537367446603827
5.5920000000000005,-0.05774010608218494
5.594,-0.05325493735122076
5.596,-0.025503108201403498
5.598,-0.06172026196535511
5.6000000000000005,-0.016478058301099684
5.602,-0.06701388069224842
5.604,-0.04096736341660851
5.606,-0.06309833764347561
5.6080000000000005,-0.04082516199691115
5.61,-0.05891817400165367
5.612,-0.07859716596756659
5.614,-0.06206809718734298
5.6160000000000005,-0.046555784094428974
5.618,-0.06359072079192521
5.62,-0.011670502014158958
5.622,-0.08412976637096307
5.6240000000000006,-0.10489568708413849
5.626,-0.04938362743115393
5.628,-0.06617828093304257
5.63,-0.09610389901159816
5.632,-0.06021671008260737
5.634,-0.05548273323876071
5.636,-0.10277993505775175
5.638,-0.059070799144487755
5.64,-0.0637061475612459
5.642,-0.10247385604224679
5.644,-0.08062923450933303
5.646,-0.09259441298774393
5.648,-0.059267094404602275
5.65,-0.06777471869898
5.652,-0.08326041233341705
5.654,-0.050629446730460666
5.656,-0.09372092385661637
5.658,-0.08623196236621032
5.66,-0.08089328081243258
5.662,-0.10541454241115883
5.664,-0.1182938500289254
5.666,-0.1320069178620558
5.668,-0.12814307930113933
5.67,-0.14703754919269862
5.672,-0.09302853375917224
5.674,-0.1220455640893531
5.676,-0.1092076541147727
5.678,-0.13736398776433112
5.68,-0.1284849250746926
5.682,-0.1419645658854449
5.684,-0.14611627530541776
5.686,-0.17172672634119646
5.688,-0.11702568462724468
5.69,-0.1241417532399823
5.692,-0.16128555648506115
5.694,-0.14214441513020587
5.696,-0.16101206534078552
5.698,-0.13148063439236307
5.7,-0.16851384673654984
5.702,-0.16444383166086576
5.704,-0.12043791099294016
5.706,-0.12512751049879028
5.708,-0.1605058916557998
5.71,-0.16597291884235033
5.712,-0.17250614403054743
5.714,-0.1377634952207611
5.716,-0.2142079261702293
5.718,-0.19240157100412697
5.72,-0.15667077177345312
5.722,-0.16780268810840268
5.724,-0.2270596546874122
5.726,-0.1923793867960059
5.728,-0.1896577385491331
5.73,-0.18729216596197898
5.732,-0.19951307037354782
5.734,-0.17365983731199658
5.736,-0.1786969010266496
5.738,-0.16682273993984253
5.74,-0.1783212015921402
5.742,-0.192192971495257
5.744,-0.17526854541166148
5.746,-0.2032302983233149
5.748,-0.16077634225383053
5.75,-0.19227606007597675
5.752,-0.1557450269654606
5.7540000000000004,-0.14749990051231054
5.756,-0.18629779777569888
5.758,-0.18602906288082632
5.76,-0.2267359333870641
5.7620000000000005,-0.17765062088291353
5.764,-0.18824337196038302
5.766,-0.17273213259631212
5.768,-0.1571814805833204
5.7700000000000005,-0.15972561209257388
5.772,-0.1987671055031942
5.774,-0.13525102425560112
5.776,-0.18284100040971463
5.7780000000000005,-0.1653424609927795
5.78,-0.1914239910146739
5.782,-0.1530001126002764
5.784,-0.1475418205533292
5.7860000000000005,-0.1214632050213704
5.788,-0.13146332205570305
5.79,-0.1379854356203204
5.792,-0.1437492313667892
5.7940000000000005,-0.11119416317017115
5.796,-0.13734154784385666
5.798,-0.12970205363026338
5.8,-0.09249285356505196
5.8020000000000005,-0.11809039159439237
5.804,-0.1202513418572862
5.806,-0.08802024955406193
5.808,-0.1360018552536774
5.8100000000000005,-0.127909255661213
5.812,-0.07699987413580228
5.814,-0.0584718155344274
5.816,-0.07829182142859736
5.8180000000000005,-0.0689765870072016
5.82,-0.08357171216712322
5.822,-0.09614036412717994
5.824,-0.04333072626419929
5.8260000000000005,-0.0951589133403235
5.828,-0.06435937121613251
5.83,-0.055558305976830494
5.832,-0.060036145930634444
5.8340000000000005,-0.0397634540103321
5.836,-0.08009370836590796
5.838,-0.08813570587931882
5.84,-0.08337446926432271
5.8420000000000005,-0.0685528467276607
5.844,-0.030099535648605444
5.846,-0.03923393329586549
5.848,-0.0633165588266308
5.8500000000000005,-0.029505762052771972
5.852,-0.045685713652741794
5.854,-0.053124543439246955
5.856,-0.0071335294540355
5.8580000000000005,-0.03697110242288615
5.86,-0.017355972396290237
5.862,-0.04612455126580886
5.864,-0.03220121806843425
5.8660000000000005,-0.042399087427505096
5.868,-0.048494548552162654
5.87,-0.0015203377191944662
5.872,-0.02125818869365015
5.8740000000000006,-0.0024537660868359495
5.876,-0.021309092138762028
5.878,-0.05365386849070002
5.88,-0.0385065117001067
5.882000000000001,-0.008824102274920238
5.884,-0.017988370846587793
5.886,0.012506381545982567
5.888,-0.017876768515072212
5.89,-0.04220289566895595
5.892,-0.008921607309510466
5.894,-0.02502092820608123
5.896,0.005047092451253285
5.898,-0.018235106996692944
5.9,0.01066871815143301
5.902,-0.025109895312471125
5.904,-0.029853880091744025
5.906,0.0025760037387159347
5.908,0.021499793416005462
5.91,-0.023140912350772223
5.912,0.000923968057615591
5.914,-0.019441256241577585
5.916,0.0008798207874440541
5.918,-0.006721017467226414
5.92,-0.03696065513973674
5.922,0.006149548313003329
5.924,0.016013996421924474
5.926,-0.011650808081334499
5.928,-0.024525041188566986
5.93,-0.03279045711238298
5.932,-0.03234284365067918
5.934,-0.017528619531803225
5.936,0.03659142580681192
5.938,-0.019718115156324614
5.94,-0.04912430101394387
5.942,0.0030887798362443557
5.944,-0.010673204353069135
5.946,-0.00912067613436228
5.948,-0.03073547505256641
5.95,0.02835973137556679
5.952,-0.020414596354445706
5.954,-0.0024202835273863946
5.956,-0.017500825211716278
5.958,0.01118937906761702
5.96,-0.026283814924718894
5.962,-0.017718573889415872
5.964,-0.01947246374775341
5.966,-0.031091183466452534
5.968,0.01021490141638346
5.97,0.0033145996966472747
5.972,0.009718341343043292
5.974,-0.024558038329685904
5.976,-0.03822731923931976
5.978,0.019514453399531333
5.98,0.017994502901576004
5.982,-0.0017640040405213307
5.984,0.0064755111950066
5.986,0.0126966533573404
5.988,-0.019099125309136447
5.99,0.02241895240176942
5.992,-0.00023877166089127243
5.994,0.012762450352565716
5.996,-0.031294522550395984
5.998,0.018073149263140617
6.0,-0.008924494723169425
6.002,-0.004423734134764652
6.0040000000000004,-0.02804784671793561
6.006,0.008094612398643343
6.008,-0.027617523249130235
6.01,-0.006131905632957734
6.0120000000000005,0.006701004994579828
6.014,-2.719739797547513e-05
6.016,0.013855682937366118
6.018,0.010693503072569121
6.0200000000000005,0.033870475814397116
6.022,0.012240858387569884
6.024,0.00500647056160123
6.026,0.026548259489122147
6.0280000000000005,0.055310386217999545
6.03,-0.024157181018626996
6.032,0.021889898920278948
6.034,0.015247542580976749
6.0360000000000005,0.051944206916110736
6.038,0.027185461579292847
6.04,0.026523020447291115
6.042,0.03462408759695007
6.0440000000000005,0.05499653363724406
6.046,0.05009825958856915
6.048,0.05872711123653175
6.05,0.059062285280174744
6.0520000000000005,0.006252167122939661
6.054,0.04155519063542485
6.056,0.04249454297705487
6.058,0.04768353282087906
6.0600000000000005,0.05512368325059173
6.062,0.06896452041120668
6.064,0.05788645581718818
6.066,0.07891684920594846
6.0680000000000005,0.09420600796422895
6.07,0.0889516279001637
6.072,0.05696600111402355
6.074,0.09607891765325516
6.0760000000000005,0.08975638720053616
6.078,0.09519614470234605
6.08,0.0986321480800742
6.082,0.0848171747234055
6.0840000000000005,0.12031663948972227
6.086,0.09408516350314793
6.088,0.09410293461656288
6.09,0.11946215912388884
6.0920000000000005,0.11707092674808935
6.094,0.09967204934743722
6.096,0.0800217695076596
6.098,0.1283477597790227
6.1000000000000005,0.12677030278229487
6.102,0.11028165935946511
6.104,0.11038859507981075
6.106,0.10453442903948941
6.1080000000000005,0.12766119509521087
6.11,0.11485463374055949
6.112,0.10691563532064592
6.114,0.12771559852984213
6.1160000000000005,0.12768359771777205
6.118,0.11793487050939819
6.12,0.1066242096337332
6.122,0.09422289023270775
6.1240000000000006,0.12122252097021287
6.126,0.06516229716118763
6.128,0.0940862655934276
6.13,0.11231096826351193
6.132000000000001,0.09933006691342469
6.134,0.08842875011023422
6.136,0.07180747463582311
6.138,0.05547488858364319
6.140000000000001,0.07459325624824283
6.142,0.10202697177477071
6.144,0.08441308906439854
6.146,0.05948853864935516
6.148,0.034888414124438064
6.15,0.05467141814597842
6.152,0.05258655379691774
6.154,-0.0010989320069695937
6.156,0.024598443890320468
6.158,0.03015623675779102
6.16,-0.008648715889788324
6.162,0.015734443700416878
6.164,0.016240577896876843
6.166,0.03531536984170719
6.168,-0.002737149183966732
6.17,-0.011572521638981394
6.172,-0.037079510284701835
6.174,-0.026949580525290846
6.176,-0.07743410949557236
6.178,-0.025745835297010133
6.18,-0.07236958162917609
6.182,-0.04691403132822641
6.184,-0.03237476847670554
6.186,-0.0546769154079125
6.188,-0.04040905148345545
6.19,-0.06705927495697772
6.192,-0.036874526025966595
6.194,-0.019072128392868124
6.196,-0.004355711447892086
6.198,0.039202782242526796
6.2,0.006196413290792633
6.202,0.11140679954830099
6.204,0.09884029263767563
6.206,0.14182837820672406
6.208,0.18669104894523936
6.21,0.22734834087906797
6.212,0.22976278442047443
6.214,0.31503994629429477
6.216,0.3537022037078946
6.218,0.4138911205322191
6.22,0.49040902841022993
6.222,0.5066765411156742
6.224,0.5946050451073985
6.226,0.6557507952425764
6.228,0.6846688490426465
6.23,0.7244986873986039
6.232,0.7683502466653348
6.234,0.8231902283932607
6.236,0.8490197666743986
6.238,0.9097548658299444
6.24,0.8704107857858588
6.242,0.9718246341940353
6.244,0.9532749759860425
6.246,1.0347462704690402
6.248,0.9927989093806496
6.25,0.9984900495916154
6.252,0.9976504759444556
6.2540000000000004,1.014047099055009
6.256,0.9837512875577573
6.258,0.9922173568755297
6.26,0.9585101889056189
6.2620000000000005,0.9522517955825609
6.264,0.9174264047846287
6.266,0.8473139866329855
6.268,0.8112234580757272
6.2700000000000005,0.7968351417265117
6.272,0.7108776082551143
6.274,0.6794810999054339
6.276,0.6542436827031306
6.2780000000000005,0.5742058427501318
6.28,0.5505144300128836
6.282,0.4941643044118255
6.284,0.44731715237617264
6.2860000000000005,0.3593317290179389
6.288,0.36070519031460313
6.29,0.28621715961636884
6.292,0.28074376150723124
6.2940000000000005,0.22597587035499447
6.296,0.23175593828383895
6.298,0.1893137900051474
6.3,0.1368295964256925
6.3020000000000005,0.09818841282996221
6.304,0.12479085311994312
6.306,0.05443782179549636
6.308,0.13168660694540188
6.3100000000000005,0.06484642138839081
6.312,0.07412664838766649
6.314,0.0013601404740988675
6.316,0.04952911346719808
6.3180000000000005,0.017665778441315637
6.32,0.03881834581911188
6.322,0.03521127381230297
6.324,0.03318334826496023
6.3260000000000005,0.07320394871729154
6.328,0.03873452862114503
6.33,0.032677770730945147
6.332,-0.004643633302716676
6.3340000000000005,0.018272774762484626
6.336,0.01854816774558862
6.338,-0.010687621947982244
6.34,0.005470516888570066
6.3420000000000005,0.027317656049471714
6.344,0.029412924131237878
6.346,0.0197902887708789
6.348,0.045033039010289516
6.3500000000000005,0.006404357267171762
6.352,0.013191040125167464
6.354,0.046495936071955284
6.356,0.01933845001548099
6.3580000000000005,0.014767191842574986
6.36,0.05157444735865754
6.362,0.045089185493470046
6.364,0.032497529069533834
6.3660000000000005,0.05869707874516394
6.368,0.03986034207492463
6.37,0.0063223722577692145
6.372,0.06671038963675124
6.3740000000000006,0.041920489673524464
6.376,0.052347729119158755
6.378,0.03605042167566595
6.38,0.06914558124171687
6.382000000000001,0.05309298923264635
6.384,0.038692352004994296
6.386,0.039886229637646625
6.388,0.03584340744718345
6.390000000000001,0.04611068819049353
6.392,0.06650462082223885
6.394,0.028014407288206516
6.396,0.042786878359242025
6.398000000000001,0.009088744220979295
6.4,0.03772942199305276
6.402,0.054476226137273105
6.404,0.046173343760700265
6.406,0.06871306106373322
6.408,0.08539686844860382
6.41,0.04148863698292572
6.412,0.051681901017084336
6.414,0.040380662690190215
6.416,0.08291668408561488
6.418,0.05979051831240188
6.42,0.003451130917373396
6.422,0.0663939467954599
6.424,0.015895614854114448
6.426,0.03566879526638921
6.428,0.05223085971737039
6.43,0.07733991116741204
6.432,0.05339252192250519
6.434,0.03995500949752134
6.436,0.05461733856779869
6.438,0.04574804289753464
6.44,0.07347626268170551
6.442,0.0581288354803433
6.444,0.060590869236261356
6.446,0.08068466589320662
6.448,0.0028946253093898346
6.45,0.05616465601840865
6.452,0.06904887722723034
6.454,0.02792106032702026
6.456,0.06521001678458982
6.458,0.024268079848436194
6.46,0.029520917225938127
6.462,0.05696677973281566
6.464,0.019652260618247527
6.466,0.009905475500895896
6.468,0.044962451850157334
6.47,0.03246934431556332
6.472,0.04714786375902126
6.474,0.04087697699077107
6.476,0.038394875454385594
6.478,0.05125956877102533
6.48,0.04219240843929103
6.482,0.009280170841217336
6.484,-0.0022629816626484646
6.486,0.03938184111565109
6.488,0.06998692354730456
6.49,0.041914234103166415
6.492,0.029381077457415562
6.494,0.011372654639196202
6.496,0.05112652979434013
6.498,0.009645272613686875
6.5,-0.017094982334440574
6.502,0.013010143444970014
6.5040000000000004,0.04681066077683797
6.506,0.04245421574326952
6.508,0.0197001100877962
6.51,0.019905719830007586
6.5120000000000005,-0.006174909445757805
6.514,0.0017363619140298922
6.516,-0.0007162540762517197
6.518,0.012609636419877827
6.5200000000000005,-0.03588883527777621
6.522,-0.016391554731138833
6.524,-0.023345159671940577
6.526,0.015357006753165411
6.5280000000000005,-0.009243414561184049
6.53,-0.008318991419549032
6.532,-0.04079836498239225
6.534,-0.025165304591436094
6.5360000000000005,-0.01851072104611208
6.538,-0.04953775225809619
6.54,-0.022714018404430283
6.542,-0.04996167727434088
6.5440000000000005,-0.06074993028601391
6.546,-0.02741050441272677
6.548,-0.043821900768680325
6.55,-0.04250489496025011
6.5520000000000005,-0.05409558935776673
6.554,-0.043103535664661796
6.556,-0.1082844767321192
6.558,-0.09951491582636596
6.5600000000000005,-0.06696545397121616
6.562,-0.07312879039336287
6.564,-0.07401783976977044
6.566,-0.058131002968337564
6.5680000000000005,-0.08274667638909823
6.57,-0.09921549396005835
6.572,-0.06630568189722046
6.574,-0.10587913839140838
6.5760000000000005,-0.10477350973877056
6.578,-0.08648949890631295
6.58,-0.12454785264072091
6.582,-0.12366368633255574
6.5840000000000005,-0.12487340148803044
6.586,-0.08699649628386741
6.588,-0.07417700388976417
6.59,-0.12358478575106117
6.5920000000000005,-0.08010264879983238
6.594,-0.10164878032169081
6.596,-0.11797680997037521
6.598,-0.10698578098286854
6.6000000000000005,-0.09134654767005956
6.602,-0.09226606954022529
6.604,-0.11470818293624596
6.606,-0.10581450640855854
6.6080000000000005,-0.08563407947899508
6.61,-0.09736907221597946
6.612,-0.14319779468062765
6.614,-0.09844824625825593
6.6160000000000005,-0.10870031374163554
6.618,-0.13874606324206518
6.62,-0.11056187058556252
6.622,-0.11094047879353025
6.6240000000000006,-0.07508700809756459
6.626,-0.08154207566592916
6.628,-0.1226093352372854
6.63,-0.06100483828701771
6.632000000000001,-0.09493827550835987
6.634,-0.06463378763477652
6.636,-0.0739290976067645
6.638,-0.05454854747099913
6.640000000000001,-0.0890188023977245
6.642,-0.06597424113375362
6.644,-0.0913278182056492
6.646,-0.06290848522197451
6.648000000000001,-0.06295209682700219
6.65,-0.020237140729955624
6.652,-0.05080747413185227
6.654,-0.02410723879732589
6.656000000000001,-0.04724382715613803
6.658,-0.02261998988443445
6.66,-0.036121649975411514
6.662,-0.04305411566274808
6.664,-0.008567557946813006
6.666,-0.016473708536908535
6.668,-0.027121569099732637
6.67,-0.03453964144712246
6.672,-0.04452456543460463
6.674,-0.03431337184335194
6.676,-0.01608364435784332
6.678,0.018433224383968702
6.68,-0.028035487733385378
6.682,-0.005590280781334632
6.684,-0.015884070901689522
6.686,-0.016270800610123315
6.688,-0.008640029448279941
6.69,-0.0010792021118177855
6.692,0.04403070634624835
6.694,0.004571514469216782
6.696,0.008177005231394162
6.698,-0.0028247465746881334
6.7,0.009932608673194211
6.702,0.01656625934861275
6.704,0.023168860386869484
6.706,-0.00541856100421681
6.708,0.04853912303454218
6.71,0.0007716550905179538
6.712,0.01120578499521701
6.714,0.011131290092712614
6.716,0.02915114035791109
6.718,0.019853275621205087
6.72,0.004565838695107904
6.722,0.0486645296953115
6.724,0.03564140314273233
6.726,-0.006354769043601176
6.728,-0.007510294304502157
6.73,0.06941427471324065
6.732,0.03510321281918353
6.734,0.02789517339337401
6.736,0.027070839759537488
6.738,0.05539975416895673
6.74,0.05712285223999332
6.742,-0.020092625594187855
6.744,0.01620616694395055
6.746,0.01381716827220606
6.748,0.024325769013078875
6.75,0.04608551022862697
6.752,0.014707994924623253
6.7540000000000004,0.06453485672330152
6.756,0.03033068635116926
6.758,0.06563755649535827
6.76,0.040385590453478254
6.7620000000000005,0.031872632673130515
6.764,0.030014905923854786
6.766,0.007742287275623025
6.768,0.03041198651231891
6.7700000000000005,0.01648654531874278
6.772,0.05191042345028863
6.774,0.03787919401320119
6.776,0.038940645498500175
6.7780000000000005,0.003945450225355052
6.78,0.0328944258286826
6.782,0.06027586444265985
6.784,0.04321509898217889
6.7860000000000005,0.020069331465438257
6.788,0.03388720987700446
6.79,0.02210408630022142
6.792,0.024774188423404314
6.7940000000000005,0.008211969758579836
6.796,0.04342248603240598
6.798,0.024230475645639966
6.8,0.058309932775505814
6.8020000000000005,0.01367284493216235
6.804,0.006788679485081081
6.806,0.03071885537635569
6.808,0.004876598751549467
6.8100000000000005,0.03728225202237274
6.812,0.06602754993118766
6.814,0.038163216758417114
6.816,0.01643823357134524
6.8180000000000005,0.039982195940459125
6.82,0.022187946110804605
6.822,0.004234954557480469
6.824,0.034825186013587195
6.8260000000000005,0.0106551115668509
6.828,0.030504813587237795
6.83,0.0435030668732809
6.832,0.07678999470494394
6.8340000000000005,0.03705848353953135
6.836,0.03288736821547512
6.838,0.03734053617337127
6.84,0.008178184673855577
6.8420000000000005,-0.001427690144915023
6.844,0.04095089060955122
6.846,0.03658523428566555
6.848,0.02528735505665621
6.8500000000000005,-0.008290729639842327
6.852,0.009093545301597648
6.854,0.01793561579284682
6.856,-0.0008179689022713422
6.8580000000000005,0.024305494106091494
6.86,0.007747661461710293
6.862,0.024427669037120285
6.864,-0.004862007422540875
6.8660000000000005,0.003745398647472652
6.868,0.03411571398742217
6.87,-0.004303817228193141
6.872,0.03202738779540348
6.8740000000000006,0.026256716023585387
6.876,0.0024238281084593295
6.878,0.006797453640767132
6.88,0.032773747797911604
6.882000000000001,-0.0037216800034203315
6.884,0.015633227033100633
6.886,0.05528104121945401
6.888,0.03198857072365976
6.890000000000001,0.02912694548427184
6.892,0.05201791135522851
6.894,0.0430516348468421
6.896,0.034585913357798204
6.898000000000001,0.014682289445509193
6.9,0.06213545256079392
6.902,0.04182458658676418
6.904,0.048956252505433256
6.906000000000001,0.05348845763994483
6.908,0.07024732555731211
6.91,0.05853071991184192
6.912,0.064564010294901
6.914,0.049522326330601885
6.916,0.07458475236346251
6.918,0.06140803029825073
6.92,0.06449466556747001
6.922,0.08415705837542031
6.924,0.09773211656612904
6.926,0.09707459598517432
6.928,0.09012599341659613
6.93,0.05659319199399997
6.932,0.07322183610868557
6.934,0.09505258381420147
6.936,0.09298840401054309
6.938,0.07925106680206143
6.94,0.09232084659753043
6.942,0.10440571025655779
6.944,0.0844545548764499
6.946,0.10125352913266811
6.948,0.10667191227657345
6.95,0.08672568716577621
6.952,0.11715319859081348
6.954,0.0837593358840747
6.956,0.10146754422709593
6.958,0.09041581664404627
6.96,0.12457765084048489
6.962,0.11410429616799288
6.964,0.11669831304171066
6.966,0.11052288888853924
6.968,0.060937592371575734
6.97,0.09534386243338566
6.972,0.10970904080439789
6.974,0.09815408826741077
6.976,0.07150318681319892
6.978,0.06603586120655788
6.98,0.09504255414492727
6.982,0.06802901924585966
6.984,0.056055786785159094
6.986,0.07719294447307608
6.988,0.08597059512462357
6.99,0.061771355811877426
6.992,0.08337569926251343
6.994,0.021200542130896838
6.996,0.07905991879871632
6.998,0.03963538808680335
7.0,0.03222002898438019
7.002,0.039797336341825064
7.0040000000000004,0.03852892976609328
7.006,-0.018946553572104816
7.008,0.015405551409947368
7.01,0.04857517208680204
7.0120000000000005,-0.00567317906627194
7.014,0.0159705917688018
7.016,-0.0066234070529112045
7.018,0.009827751529745838
7.0200000000000005,-0.04532541066247813
7.022,-0.002635474513047527
7.024,-0.03170020663222535
7.026,-0.10428490028716592
7.0280000000000005,-0.026273786328059844
7.03,-0.033638267368333835
7.032,-0.061117425384145996
7.034,-0.04112108469667346
7.0360000000000005,-0.058389958590951585
7.038,-0.06527030444635891
7.04,-0.07061124795559026
7.042,-0.09765210842042782
7.0440000000000005,-0.08171258533857897
7.046,-0.0789123671411688
7.048,-0.10553686672464177
7.05,-0.04311944404440185
7.0520000000000005,-0.04959764648381702
7.054,-0.03700491630804059
7.056,-0.012611902774665257
7.058,0.0007383206194216396
7.0600000000000005,0.03307014888786803
7.062,0.04446320056438253
7.064,0.15800806783297666
7.066,0.1511084081620301
7.0680000000000005,0.1914562766769034
7.07,0.2470310588851919
7.072,0.30241630338810777
7.074,0.3129287034696576
7.0760000000000005,0.43928645312385367
7.078,0.45286986389100475
7.08,0.5114018089590371
7.082,0.5345595826668011
7.0840000000000005,0.6202715884700135
7.086,0.6642852942092422
7.088,0.6789805249762918
7.09,0.7757704163382392
7.0920000000000005,0.7634652130671578
7.094,0.8350129871870423
7.096,0.8901995292421154
7.098,0.8853893569298623
7.1000000000000005,0.9291834563446061
7.102,0.9634012779395393
7.104,0.9362688853286356
7.106,0.9863694792035789
7.1080000000000005,0.9585058308607152
7.11,0.9526771781092808
7.112,0.9557812122639912
7.114,0.9268816734838387
7.1160000000000005,0.9244650995796334
7.118,0.868907701124098
7.12,0.8622068676798786
7.122,0.8702544742347095
7.1240000000000006,0.7911434789725559
7.126,0.7316172944437406
7.128,0.685415264576392
7.13,0.6551135005882328
7.132000000000001,0.6195775615659206
7.134,0.5721788406090637
7.136,0.48823311986058887
7.138,0.4710380967473271
7.140000000000001,0.41086888416909256
7.142,0.37827649571282174
7.144,0.33397085967845536
7.146,0.29445131794861884
7.148000000000001,0.2374391597246899
7.15,0.20384356421910518
7.152,0.1584154040717642
7.154,0.13040491571977655
7.156000000000001,0.12122477704575663
7.158,0.08251719994571914
7.16,0.02931623405575008
7.162,0.07155885116574538
7.164000000000001,-0.006560081396621745
7.166,0.006843216825794911
7.168,-0.05480588278771436
7.17,-0.04711587311191399
7.172,-0.030111441983821895
7.174,-0.018460137446701497
7.176,-0.04939910298620453
7.178,-0.014469485560040404
7.18,0.006625448633420579
7.182,-0.033378296730789854
7.184,-0.06673535043427753
7.186,-0.06429606916716225
7.188,-0.048102384598771614
7.19,-0.049687466351571695
7.192,-0.06533310671468699
7.194,-0.06287039794286739
7.196,-0.06971377189706852
7.198,-0.0517045330297098
7.2,-0.04853506555347197
7.202,0.004836593607483516
7.204,-0.06258163633364511
7.206,-0.04231048762803413
7.208,-0.04951155637521948
7.21,-0.023941112653577352
7.212,-0.04645325283248666
7.214,-0.062293608090108726
7.216,-0.05594722803020946
7.218,-0.00921482272201923
7.22,-0.07483197299161344
7.222,0.0025267899791371943
7.224,-0.044178552725407556
7.226,-0.061959880923270545
7.228,-0.04975443390199115
7.23,-0.06580064888620436
7.232,-0.050854772192111014
7.234,0.011055086642240914
7.236,-0.0826043163741067
7.238,-0.05638485697236479
7.24,-0.05201078084369794
7.242,-0.025456863565796593
7.244,-0.07391812019752987
7.246,-0.015050134672597177
7.248,-0.026730335044895213
7.25,-0.026258451333670912
7.252,-0.025397162412542813
7.2540000000000004,-0.06058598773458122
7.256,-0.04670129860753637
7.258,-0.01862631552763084
7.26,-0.07518147643425328
7.2620000000000005,-0.04067302124551526
7.264,-0.01593269235804275
7.266,-0.033858661794609286
7.268,-0.032440390589675475
7.2700000000000005,-0.03676124062799729
7.272,-0.05192835614997131
7.274,-0.04120023008526963
7.276,-0.05004909797857639
7.2780000000000005,-0.04490523389785108
7.28,-0.04689788756474601
7.282,-0.0058775678365931006
7.284,-0.0456901850378051
7.2860000000000005,-0.05714250853630655
7.288,-0.05101936531258534
7.29,-0.033603783142712555
7.292,-0.04854289043870648
7.2940000000000005,-0.056058959497797406
7.296,0.0033826738819098595
7.298,-0.029999202906192114
7.3,-0.06300962781106326
7.3020000000000005,-0.020288983428066072
7.304,-0.03452086706029048
7.306,-0.061065023778544565
7.308,-0.013512774514448109
7.3100000000000005,-0.04367354657752952
7.312,-0.08955713346620756
7.314,-0.044174037545106265
7.316,-0.05555146621611703
7.3180000000000005,-0.04843298367596674
7.32,-0.07484635723040839
7.322,-0.08396292036073064
7.324,-0.0755977025669384
7.3260000000000005,-0.09406231505645835
7.328,-0.048161528643883726
7.33,-0.027724939327367432
7.332,-0.05257008613594938
7.3340000000000005,-0.05825793582152264
7.336,-0.04590482879835551
7.338,-0.0825095172735243
7.34,-0.059090478367633585
7.3420000000000005,-0.03764647787618751
7.344,-0.056021397820659305
7.346,-0.041763680652430205
7.348,-0.06475290914326805
7.3500000000000005,-0.0749471295485245
7.352,-0.04905052543244408
7.354,-0.078369220932101
7.356,-0.0418797925068575
7.3580000000000005,-0.06470136381001741
7.36,-0.10626390730575945
7.362,-0.07298095724452935
7.364,-0.09967735659254223
7.3660000000000005,-0.08304262336640815
7.368,-0.07305496136477219
7.37,-0.08412518965849228
7.372,-0.07454216615910211
7.3740000000000006,-0.08944054281913075
7.376,-0.11929084619298516
7.378,-0.09892563433569765
7.38,-0.11247017800413092
7.382000000000001,-0.09959903169514468
7.384,-0.09713505498332077
7.386,-0.1121212382250954
7.388,-0.0959758843937811
7.390000000000001,-0.0911810359652643
7.392,-0.1265938795416374
7.394,-0.14512545973514476
7.396,-0.17763148151120872
7.398000000000001,-0.11963553939626576
7.4,-0.11490607102025728
7.402,-0.14997813204329097
7.404,-0.18373852802038193
7.406000000000001,-0.162049291237031
7.408,-0.18603068215734336
7.41,-0.15503780370086348
7.412,-0.16348085111928273
7.414000000000001,-0.14232932754375122
7.416,-0.14297472192525473
7.418,-0.16422824156266094
7.42,-0.18068600591199335
7.422000000000001,-0.15874544693241785
7.424,-0.16736438226811107
7.426,-0.17452855500532546
7.428,-0.18600756861736206
7.43,-0.18166046148812226
7.432,-0.1759816322782924
7.434,-0.19371525815646834
7.436,-0.16866771617703252
7.438,-0.20036322328034112
7.44,-0.1701357460619408
7.442,-0.1902004746876236
7.444,-0.18432110777322977
7.446,-0.20321600889123037
7.448,-0.17357804538973354
7.45,-0.19427641114512537
7.452,-0.18015855990040094
7.454,-0.19639836691988197
7.456,-0.20338155004336364
7.458,-0.19949183811753143
7.46,-0.19210823833704124
7.462,-0.1728928795737818
7.464,-0.21066805568855174
7.466,-0.1816286845256809
7.468,-0.2295104979084443
7.47,-0.1570149636011422
7.472,-0.1700659673287449
7.474,-0.16575350345717543
7.476,-0.19299447589364113
7.478,-0.18941687864473802
7.48,-0.19567014767566687
7.482,-0.19111889952749148
7.484,-0.22563627636284958
7.486,-0.2003039374522202
7.488,-0.13426917774475206
7.49,-0.17263102254912727
7.492,-0.16273081354429877
7.494,-0.1777567313481836
7.496,-0.17068373364343664
7.498,-0.13283131392344594
7.5,-0.1854574245178125
7.502,-0.15100779514943014
7.5040000000000004,-0.1838333145702369
7.506,-0.16479919513260313
7.508,-0.15980570037864353
7.51,-0.12953660967445702
7.5120000000000005,-0.11188280586057761
7.514,-0.17175369736436613
7.516,-0.1385521368186006
7.518,-0.1133729657505678
7.5200000000000005,-0.09826430063299216
7.522,-0.14626363391337455
7.524,-0.07461546879005257
7.526,-0.12569302026887155
7.5280000000000005,-0.09538793054524851
7.53,-0.1275273747914746
7.532,-0.1206360370632263
7.534,-0.13321234084235628
7.5360000000000005,-0.0972811083063599
7.538,-0.10019489417338209
7.54,-0.10267947053520882
7.542,-0.11034617282768495
7.5440000000000005,-0.058023185086831276
7.546,-0.09119454758646625
7.548,-0.10449029791499378
7.55,-0.06762255991265793
7.5520000000000005,-0.09163663819390633
7.554,-0.05315027487258443
7.556,-0.06323840640307311
7.558,-0.09699125126110483
7.5600000000000005,-0.05579457385902899
7.562,-0.09444169975708297
7.564,-0.0972211369289176
7.566,-0.10231247098636884
7.5680000000000005,-0.0840521733828601
7.57,-0.105528020878486
7.572,-0.06902565706314427
7.574,-0.09857480887186884
7.5760000000000005,-0.060934028652645994
7.578,-0.06236833051059841
7.58,-0.04284525567536984
7.582,-0.05632722292829253
7.5840000000000005,-0.06203403116983333
7.586,-0.05314148020202494
7.588,-0.049703251777695884
7.59,-0.056847339211018644
7.5920000000000005,-0.037191973134557674
7.594,-0.06214177111784444
7.596,-0.04821811779510258
7.598,-0.02173898529450753
7.6000000000000005,-0.055476508119258985
7.602,-0.06860975696369433
7.604,-0.058469020540167616
7.606,-0.02615288315144283
7.6080000000000005,-0.03961341371514122
7.61,-0.03349794218223996
7.612,-0.059111506158561575
7.614,-0.05660059386859176
7.6160000000000005,-0.06326229137765267
7.618,-0.03327617725438202
7.62,-0.033718663402583116
7.622,-0.055949229264279726
7.6240000000000006,-0.060682650455394054
7.626,-0.04749851296257335
7.628,-0.05469491879865716
7.63,-0.018104887638808066
7.632000000000001,-0.07909347692617456
7.634,-0.04578740517102228
7.636,-0.03598145536120241
7.638,-0.05344242938728638
7.640000000000001,-0.06670656830635846
7.642,-0.046187605792233646
7.644,-0.04830781482416503
7.646,-0.047661544898357805
7.648000000000001,-0.06849141130709159
7.65,-0.05664395469313465
7.652,-0.02611795553989217
7.654,-0.021786477443219272
7.656000000000001,-0.03980841428339654
7.658,-0.025761823483537
7.66,-0.007536611004166116
7.662,-0.07133156609532079
7.664000000000001,-0.03737182453741935
7.666,-0.025957847807089065
7.668,-0.06461511349454056
7.67,-0.0434384431338863
7.672000000000001,-0.05662655526817065
7.674,-0.04456916879529998
7.676,-0.053692657441993266
7.678,-0.051129125166611285
7.68,-0.01321264970392436
7.682,-0.04107164213416237
7.684,-0.006759603368437677
7.686,-0.0677758391658777
7.688,-0.026146458378895565
7.69,-0.06446979518017942
7.692,-0.02059541350519653
7.694,-0.06061634006137243
7.696,-0.03222641390039318
7.698,-0.03979036367484862
7.7,-0.03770651673003797
7.702,-0.05645266542812231
7.704,-0.03082947954652229
7.706,-0.029809035172051114
7.708,-0.03563742266174527
7.71,-0.03392997922497505
7.712,-0.02128634851377554
7.714,-0.061502016646761526
7.716,-0.01987229488944285
7.718,-0.05874604227846793
7.72,-0.025658843909795174
7.722,-0.05241929506164714
7.724,-0.024456559942807012
7.726,-0.04477305695735313
7.728,-0.08721483011278924
7.73,-0.01936053369736143
7.732,-0.04829879195065677
7.734,-0.028889133386902095
7.736,-0.02015704357799436
7.738,-0.04052387588845636
7.74,-0.02927662990804808
7.742,-0.04806844522165636
7.744,-0.042801279996070626
7.746,0.022034398505116612
7.748,-0.010332049304630813
7.75,-0.005211111740029542
7.752,-0.02114146947515378
7.7540000000000004,-0.0193148150148141
7.756,-0.03165271833204667
7.758,0.02167549523358426
7.76,-0.002574625313686612
7.7620000000000005,-0.019231468839879043
7.764,0.01670948855352814
7.766,-0.015339922504744342
7.768,-0.012801850296868027
7.7700000000000005,-0.027330970660765785
7.772,-0.02085039673618485
7.774,0.019960398803087205
7.776,0.003462625136517697
7.7780000000000005,0.021186623672039766
7.78,0.015108773852923543
7.782,-0.019782206512605996
7.784,0.07671504081714212
7.7860000000000005,0.06793963999456304
7.788,0.03267876910267649
7.79,0.06251403613912523
7.792,0.03570156365866477
7.7940000000000005,0.08144959027053189
7.796,0.07539503960519442
7.798,0.039682173283778474
7.8,0.09602366796832254
7.8020000000000005,0.05849316444216501
7.804,0.05217261140293772
7.806,0.012766511717225398
7.808,0.05275301071810792
7.8100000000000005,0.08044471937181447
7.812,0.07700291365522718
7.814,0.06892323377458306
7.816,0.07956043860922665
7.8180000000000005,0.06894716918197016
7.82,0.054733237931671896
7.822,0.03890079687698843
7.824,0.06342597419380683
7.8260000000000005,0.043038171981905876
7.828,0.08159738024162422
7.83,0.06900093542113425
7.832,0.058636946473022686
7.8340000000000005,0.058102562855351994
7.836,0.08336047722214582
7.838,0.06777182479866675
7.84,0.08936091739622463
7.8420000000000005,0.08677157429760812
7.844,0.08089641699949673
7.846,0.05006464978085823
7.848,0.028744442601378914
7.8500000000000005,0.056571928842421654
7.852,0.041080606839478215
7.854,0.05226121314229583
7.856,0.025375228593940723
7.8580000000000005,-0.009032526749099865
7.86,0.031980210898661744
7.862,-0.018619118217653247
7.864,0.010101058248015833
7.8660000000000005,0.004415580111229389
7.868,-0.001836116503265043
7.87,-0.020299664851039616
7.872,-0.01686040995663258
7.8740000000000006,-0.05724291350504489
7.876,0.0038642247262392904
7.878,-0.025843727928155126
7.88,-0.007727475451719902
7.882000000000001,-0.04563730292216793
7.884,-0.07958561700447613
7.886,-0.07567081037443571
7.888,-0.08868256295278257
7.890000000000001,-0.0867048549052836
7.892,-0.10553106588088582
7.894,-0.10511440610530862
7.896,-0.13596139033992583
7.898000000000001,-0.09919043547938754
7.9,-0.08450903965830221
7.902,-0.12303722625967911
7.904,-0.06436976950118366
7.906000000000001,-0.0662190164355053
7.908,-0.09222698651553687
7.91,-0.05109370247544784
7.912,-0.0378647847858163
7.914000000000001,0.03799304550346073
7.916,0.03817049306051844
7.918,0.09406689926339559
7.92,0.12910176455759897
7.922000000000001,0.11016200199642735
7.924,0.16770011919893849
7.926,0.23328069079662933
7.928,0.2761304089163855
7.930000000000001,0.3480349409743485
7.932,0.36164510352733287
7.934,0.40226275699542735
7.936,0.44565108369353046
7.938,0.558317480018078
7.94,0.5937840795162443
7.942,0.6178247384851999
7.944,0.7177816319246891
7.946,0.7452455897115272
7.948,0.7938682611759285
7.95,0.8192129919513048
7.952,0.863695479055482
7.954,0.9152223740135571
7.956,0.9159735998077924
7.958,0.9222267627429064
7.96,0.9405251299636306
7.962,0.9907639229206456
7.964,1.0140193298509796
7.966,0.9721994720669597
7.968,0.9792834999601938
7.97,0.9812267628858472
7.972,0.9170441632876916
7.974,0.8984819991137251
7.976,0.9181132267912303
7.978,0.8551291873016332
7.98,0.83157671380419
7.982,0.8146669384842115
7.984,0.7454706648860907
7.986,0.7127593409888356
7.988,0.6664461829226849
7.99,0.5852239625386385
7.992,0.5691947699558931
7.994,0.509569149919017
7.996,0.4631211634755215
7.998,0.41235352596567715
8.0,0.362160041008221
8.002,0.2991661826599159
8.004,0.2520363030524483
8.006,0.2559872599430926
8.008000000000001,0.1900068212118538
8.01,0.18954273121401097
8.012,0.16510759827547408
8.014,0.108549008782235
8.016,0.12549882202522541
8.018,0.0436413066456042
8.02,0.06598176989816604
8.022,0.05202652722307481
8.024000000000001,0.04451464726141012
8.026,0.019317772798817637
8.028,0.00010799302568198542
8.03,-0.0006458842978118422
8.032,-0.027089134655696193
8.034,-0.04766491200927622
8.036,-0.026179128490207957
8.038,-0.0035847692142628486
8.040000000000001,-0.043840441111821365
8.042,-0.021852450826060937
8.044,-0.0187897299974122
8.046,0.010068741739292023
8.048,-0.0004827965306545348
8.05,0.023582294317450972
8.052,0.029653246417963748
8.054,0.004055111613991344
8.056000000000001,0.003869800308134181
8.058,0.006661680069344976
8.06,-0.005848949899826714
8.062,-0.024272684265259956
8.064,0.009149657981478508
8.066,0.024249407299236265
8.068,0.00901209790368044
8.07,0.02902428283889654
8.072000000000001,-0.009935523923267884
8.074,-0.026976792271158033
8.076,0.005634919367272096
8.078,0.025689898084533817
8.08,-0.029047473365834978
8.082,0.050197058090872146
8.084,0.015324275445777927
8.086,0.01772888379567439
8.088000000000001,-0.006804642999155729
8.09,0.0029466368851444264
8.092,0.014963283455363938
8.094,-0.0015591029483511495
8.096,0.005091982493768366
8.098,0.013659495833892919
8.1,0.032882559332644716
8.102,0.03180373181632129
8.104000000000001,-0.004457647721643241
8.106,-0.022166994863216386
8.108,0.03833568384341579
8.11,0.018393503303651436
8.112,-0.0020442145221241294
8.114,0.015164727613660622
8.116,0.008949111325492549
8.118,0.007546874314954589
8.120000000000001,0.023597833228480025
8.122,0.029972078974763467
8.124,0.015264786264373196
8.126,0.010786740364369168
8.128,0.02636573625884661
8.13,0.017815952804108203
8.132,0.014309837591548288
8.134,0.04645552134873851
8.136000000000001,0.029281125044675553
8.138,0.024443417240744104
8.14,0.029061646500822963
8.142,-0.005709119496191492
8.144,0.01293759500516981
8.146,0.016399172013625157
8.148,0.03785341697489343
8.15,0.054425164733079144
8.152000000000001,0.0357705914735967
8.154,0.02035068262720468
8.156,0.023383496559329846
8.158,0.03080268828661989
8.16,0.040527626812708155
8.162,0.04732678246104059
8.164,0.030555526785080837
8.166,0.019103243498343466
8.168000000000001,0.0466760296417247
8.17,0.012274229561110392
8.172,0.03724775059981484
8.174,-0.01812167977946158
8.176,0.015390384299399982
8.178,-0.0009664761824298585
8.18,0.013312523715722767
8.182,0.006589686484335703
8.184000000000001,-0.001801297449473641
8.186,0.02354567074497183
8.188,-0.025243441241892775
8.19,0.011063631868973746
8.192,0.010405924115003138
